name	length	score	pvalue	qvalue	fdr
seq1	576855	0.0233777924104422	0.607180533089528	0.993554387394253	0.993554387394253
seq2	264378	0.0197116964614094	0.636226176243055	0.993554387394253	0.993554387394253
seq3	109381	0.152201602276318	0.276003938392292	0.993554387394253	0.993554387394253
seq4	86514	0.416737519290306	0.11998030803854	0.993554387394253	0.993554387394253
seq5	65088	0.376188744681183	0.135522891905197	0.993554387394253	0.993554387394253
seq6	61270	0.0392464252493585	0.515683240734229	0.993554387394253	0.993554387394253
seq7	53681	0.0301444148057613	0.564807651733596	0.993554387394253	0.993554387394253
seq8	46689	0.0426931122006012	0.501054926506787	0.993554387394253	0.993554387394253
seq9	44408	0.0204592607447872	0.63031858780505	0.993554387394253	0.993554387394253
seq10	41715	0.879375087816093	0.0161052113369435	0.850647980614925	0.850647980614925
seq11	37379	0.997639819548166	0.000175821084464449	0.0413109654482836	0.0413109654482836
seq12	32888	0.0317275966616976	0.55499683522048	0.993554387394253	0.993554387394253
seq13	32732	0.0223401478246863	0.614600182853928	0.993554387394253	0.993554387394253
seq14	30801	0.997040247587212	0.000246149518250229	0.0454912417138837	0.0454912417138837
seq15	20829	0.0172432021088034	0.657500527463253	0.993554387394253	0.993554387394253
seq16	16340	0.0114162677126707	0.722941135100921	0.993554387394253	0.993554387394253
seq17	15182	0.0355570792999531	0.534285111470568	0.993554387394253	0.993554387394253
seq18	12094	0.125720453738494	0.311590125887896	0.993554387394253	0.993554387394253
seq19	12018	0.0070804959904989	0.791616850692735	0.993554387394253	0.993554387394253
seq20	10522	0.0434772811726241	0.497608833251283	0.993554387394253	0.993554387394253
seq21	9825	0.00540317861805231	0.825831633729517	0.993554387394253	0.993554387394253
seq22	9252	0.0471272825118975	0.483543146494128	0.993554387394253	0.993554387394253
seq23	8502	0.00483486300156643	0.838068781208242	0.993554387394253	0.993554387394253
seq24	7480	0.0166955970323379	0.663408115901259	0.993554387394253	0.993554387394253
seq25	6735	0.00519328030358749	0.830649131443843	0.993554387394253	0.993554387394253
seq26	6475	0.00631043033314778	0.806456150221535	0.993554387394253	0.993554387394253
seq27	5743	0.0118110610116542	0.717701666783881	0.993554387394253	0.993554387394253
seq28	5539	0.00513011862333147	0.83195020746888	0.993554387394253	0.993554387394253
seq29	5482	0.136738498009548	0.296082706238132	0.993554387394253	0.993554387394253
seq30	5470	0.016838105532845	0.661685069273507	0.993554387394253	0.993554387394253
seq31	5441	0.983015071764834	0.00203952457978761	0.202968805935143	0.202968805935143
seq32	5270	0.0232892390970729	0.607848653210493	0.993554387394253	0.993554387394253
seq33	5122	0.0663916845079158	0.423623320908643	0.993554387394253	0.993554387394253
seq34	4798	0.0616721776760703	0.435895632604262	0.993554387394253	0.993554387394253
seq35	4754	0.0455561331757822	0.489696884450383	0.993554387394253	0.993554387394253
seq36	4734	0.00743316551380183	0.785076306350658	0.993554387394253	0.993554387394253
seq37	4622	0.048790640470434	0.477916871791265	0.993554387394253	0.993554387394253
seq38	4391	0.00594987641776748	0.814227442154863	0.993554387394253	0.993554387394253
seq39	3956	0.21949056092606	0.216154441240594	0.993554387394253	0.993554387394253
seq40	3941	0.00328155014609257	0.87710106195935	0.993554387394253	0.993554387394253
seq41	3934	0.00250358719979567	0.900379773542443	0.993554387394253	0.993554387394253
seq42	3921	0.219527722931955	0.216154441240594	0.993554387394253	0.993554387394253
seq43	3754	0.0343254084491123	0.541106969547788	0.993554387394253	0.993554387394253
seq44	3721	0.0343653350492663	0.540860820029538	0.993554387394253	0.993554387394253
seq45	3707	0.181423074559477	0.246114354033336	0.993554387394253	0.993554387394253
seq46	3691	0.00213194432176846	0.911210352345453	0.993554387394253	0.993554387394253
seq47	3551	0.0772867004798262	0.394999648357831	0.993554387394253	0.993554387394253
seq48	3517	0.0747640096525198	0.400977565229622	0.993554387394253	0.993554387394253
seq49	3489	0.0324345525609296	0.550636472325761	0.993554387394253	0.993554387394253
seq50	3370	0.0729090493779115	0.406041212462198	0.993554387394253	0.993554387394253
seq51	3162	0.0904366459295373	0.367747380265841	0.993554387394253	0.993554387394253
seq52	3145	0.338977210712986	0.15064350516914	0.993554387394253	0.993554387394253
seq53	3142	0.0103196877558961	0.738765032702722	0.993554387394253	0.993554387394253
seq54	3078	0.168088081463965	0.25870314368099	0.993554387394253	0.993554387394253
seq55	3065	0.243797366700813	0.198748153878613	0.993554387394253	0.993554387394253
seq56	2946	0.459130726284258	0.184693146789276	0.993554387394253	0.993554387394253
seq57	2872	0.148804205521749	0.463087317979429	0.993554387394253	0.993554387394253
seq58	2845	0.0980449369192581	0.558490487706152	0.993554387394253	0.993554387394253
seq59	2772	0.0328120561671528	0.77208896823008	0.993554387394253	0.993554387394253
seq60	2705	0.121079402229663	0.510539808404861	0.993554387394253	0.993554387394253
seq61	2697	0.15676253532863	0.450736385432127	0.993554387394253	0.993554387394253
seq62	2646	0.0169959912437582	0.862977301269344	0.993554387394253	0.993554387394253
seq63	2610	0.0989524023241566	0.556092953741087	0.993554387394253	0.993554387394253
seq64	2574	0.158636564289117	0.44788217833086	0.993554387394253	0.993554387394253
seq65	2532	0.182336544855783	0.414617691932454	0.993554387394253	0.993554387394253
seq66	2424	0.0325075990396434	0.773822250360668	0.993554387394253	0.993554387394253
seq67	2329	0.0878748474584638	0.58255923777102	0.993554387394253	0.993554387394253
seq68	2326	0.107942895410613	0.536756997996866	0.993554387394253	0.993554387394253
seq69	2307	0.209365621305501	0.380585164350434	0.993554387394253	0.993554387394253
seq70	2232	0.0677096701756842	0.638761170328701	0.993554387394253	0.993554387394253
seq71	2182	0.0229808214487376	0.824077053212799	0.993554387394253	0.993554387394253
seq72	2144	0.0579915721702028	0.670115932702986	0.993554387394253	0.993554387394253
seq73	2144	0.0343966645466969	0.764263251305151	0.993554387394253	0.993554387394253
seq74	2086	0.145183947784852	0.468837247921618	0.993554387394253	0.993554387394253
seq75	2080	0.267624971122542	0.320999699010887	0.993554387394253	0.993554387394253
seq76	2059	0.283592807882137	0.307226852380409	0.993554387394253	0.993554387394253
seq77	2020	0.96788299210817	0.00266738627282068	0.221393060644116	0.221393060644116
seq78	2018	0.0477464587423092	0.707729192830232	0.993554387394253	0.993554387394253
seq79	2009	0.142726604270156	0.47257366449055	0.993554387394253	0.993554387394253
seq80	2007	0.144386511951915	0.469916657152643	0.993554387394253	0.993554387394253
seq81	1970	0.080542697089922	0.601168668071283	0.993554387394253	0.993554387394253
seq82	1967	0.155908187902756	0.452023373361426	0.993554387394253	0.993554387394253
seq83	1961	0.479596320106341	0.173556549626877	0.993554387394253	0.993554387394253
seq84	1960	0.0309872339188089	0.781398872847668	0.993554387394253	0.993554387394253
seq85	1945	0.346440308684244	0.256079461125699	0.993554387394253	0.993554387394253
seq86	1937	0.236731267888552	0.35066269499424	0.993554387394253	0.993554387394253
seq87	1860	0.218884429495522	0.370009029673375	0.993554387394253	0.993554387394253
seq88	1857	0.0587660117230749	0.667531577909475	0.993554387394253	0.993554387394253
seq89	1846	0.0251773892601429	0.811591194511619	0.993554387394253	0.993554387394253
seq90	1841	0.158831904543422	0.44760194708819	0.993554387394253	0.993554387394253
seq91	1835	0.0766340044585136	0.612294886298768	0.993554387394253	0.993554387394253
seq92	1835	0.0258795634513972	0.807813262203033	0.993554387394253	0.993554387394253
seq93	1810	0.280197691454447	0.310153712026072	0.993554387394253	0.993554387394253
seq94	1797	0.260418429919481	0.327310091438417	0.993554387394253	0.993554387394253
seq95	1775	0.124249142157863	0.504571920829484	0.993554387394253	0.993554387394253
seq96	1747	0.0951706432637865	0.564780122263853	0.993554387394253	0.993554387394253
seq97	1733	0.0475983507187654	0.708300034250485	0.993554387394253	0.993554387394253
seq98	1732	0.0438819947245916	0.722685238040872	0.993554387394253	0.993554387394253
seq99	1724	0.0578500199883528	0.670541469034448	0.993554387394253	0.993554387394253
seq100	1712	0.878383700392775	0.0216815950347175	0.969000516551605	0.969000516551605
seq101	1695	0.0551624314665577	0.679394700515833	0.993554387394253	0.993554387394253
seq102	1672	0.105095306483663	0.542538064743796	0.993554387394253	0.993554387394253
seq103	1670	0.219414026799092	0.36940705144838	0.993554387394253	0.993554387394253
seq104	1660	0.0736429093325815	0.620847128667656	0.993554387394253	0.993554387394253
seq105	1643	0.0330154153827822	0.77093690645466	0.993554387394253	0.993554387394253
seq106	1636	0.31071921917487	0.284258269416392	0.993554387394253	0.993554387394253
seq107	1607	0.0944519020198317	0.566409615045304	0.993554387394253	0.993554387394253
seq108	1607	0.0587458836728687	0.667614609388784	0.993554387394253	0.993554387394253
seq109	1592	0.0146357804993665	0.879261850148938	0.993554387394253	0.993554387394253
seq110	1591	0.106701116135691	0.539206426636499	0.993554387394253	0.993554387394253
seq111	1577	0.0527043593504631	0.68847626856532	0.993554387394253	0.993554387394253
seq112	1555	0.0706224015765271	0.629721118018869	0.993554387394253	0.993554387394253
seq113	1554	0.00730597531825652	0.939387020103997	0.993554387394253	0.993554387394253
seq114	1530	0.0221098585974151	0.82985811995973	0.993554387394253	0.993554387394253
seq115	1524	0.231415635940788	0.356267319847637	0.993554387394253	0.993554387394253
seq116	1507	0.459375686481961	0.184547841700485	0.993554387394253	0.993554387394253
seq117	1475	0.0260753362435436	0.806671579362526	0.993554387394253	0.993554387394253
seq118	1462	0.129684430895117	0.494940269229572	0.993554387394253	0.993554387394253
seq119	1457	0.0532221141295298	0.686763744304559	0.993554387394253	0.993554387394253
seq120	1455	0.243293387212573	0.34387487156068	0.993554387394253	0.993554387394253
seq121	1452	0.0246920702941009	0.814248201849526	0.993554387394253	0.993554387394253
seq122	1447	0.0774570658858445	0.609783184049653	0.993554387394253	0.993554387394253
seq123	1441	0.0310295476439931	0.781222430954135	0.993554387394253	0.993554387394253
seq124	1408	0.252582096095492	0.334886713925417	0.993554387394253	0.993554387394253
seq125	1382	0.0258394849426911	0.807948188356911	0.993554387394253	0.993554387394253
seq126	1376	0.221544090560256	0.366968001743661	0.993554387394253	0.993554387394253
seq127	1375	0.12777610483652	0.498552138579539	0.993554387394253	0.993554387394253
seq128	1350	0.222911935519458	0.365597982335053	0.993554387394253	0.993554387394253
seq129	1350	0.127214392968084	0.499569274201081	0.993554387394253	0.993554387394253
seq130	1340	0.107156566446695	0.538365732908489	0.993554387394253	0.993554387394253
seq131	1336	0.089003096764402	0.579476694101651	0.993554387394253	0.993554387394253
seq132	1330	0.0336434288026836	0.767833604915464	0.993554387394253	0.993554387394253
seq133	1315	0.0437332055082664	0.723391005615004	0.993554387394253	0.993554387394253
seq134	1303	0.302477625260091	0.291139503264175	0.993554387394253	0.993554387394253
seq135	1301	0.0162538192623504	0.868727231211533	0.993554387394253	0.993554387394253
seq136	1287	0.15978645631722	0.446221548744668	0.993554387394253	0.993554387394253
seq137	1276	0.096323790020796	0.562341072559134	0.993554387394253	0.993554387394253
seq138	1270	0.0382837892603188	0.746702093431172	0.993554387394253	0.993554387394253
seq139	1266	0.163196927808781	0.441364207205057	0.993554387394253	0.993554387394253
seq140	1266	0.0111879877443861	0.905914955007317	0.993554387394253	0.993554387394253
seq141	1265	0.348549856240791	0.254366936864939	0.993554387394253	0.993554387394253
seq142	1257	0.0287498585018398	0.792857216992392	0.993554387394253	0.993554387394253
seq143	1252	0.00532734660867405	0.956533020581428	0.993554387394253	0.993554387394253
seq144	1246	0.0549264124489196	0.680349562527893	0.993554387394253	0.993554387394253
seq145	1230	0.0601873168972782	0.663099772701325	0.993554387394253	0.993554387394253
seq146	1224	0.0775621272858623	0.609617121091034	0.993554387394253	0.993554387394253
seq147	1223	0.234869704362395	0.352406356059741	0.993554387394253	0.993554387394253
seq148	1219	0.0352722663213885	0.760412666452169	0.993554387394253	0.993554387394253
seq149	1215	0.42704489241148	0.202897798627905	0.993554387394253	0.993554387394253
seq150	1210	0.163155689994453	0.441436859749453	0.993554387394253	0.993554387394253
seq151	1189	0.0136692399942308	0.886329904825167	0.993554387394253	0.993554387394253
seq152	1185	0.0168434084129593	0.864222773458988	0.993554387394253	0.993554387394253
seq153	1175	0.0699988072426731	0.631734631392126	0.993554387394253	0.993554387394253
seq154	1161	0.509158879602003	0.157759810688227	0.993554387394253	0.993554387394253
seq155	1160	0.239331279710275	0.348005687656333	0.993554387394253	0.993554387394253
seq156	1153	0.10570104151052	0.54131335042398	0.993554387394253	0.993554387394253
seq157	1152	0.0517078746627339	0.692150411524769	0.993554387394253	0.993554387394253
seq158	1148	0.0994087530183903	0.555252260013077	0.993554387394253	0.993554387394253
seq159	1147	0.0103595861544643	0.913003767553374	0.993554387394253	0.993554387394253
seq160	1136	0.0417335829058015	0.731652637806308	0.993554387394253	0.993554387394253
seq161	1133	0.0562094032781193	0.676114957083104	0.993554387394253	0.993554387394253
seq162	1133	0.0319863796209251	0.77652077343823	0.993554387394253	0.993554387394253
seq163	1110	0.0121564574401507	0.897964690863424	0.993554387394253	0.993554387394253
seq164	1107	0.73802756522885	0.0629897559912402	0.993554387394253	0.993554387394253
seq165	1106	0.270491873712284	0.318643680785478	0.993554387394253	0.993554387394253
seq166	1101	0.216871681490747	0.372271637484561	0.993554387394253	0.993554387394253
seq167	1099	0.093648886182353	0.568070244631496	0.993554387394253	0.993554387394253
seq168	1096	0.0573470402771521	0.672388919449086	0.993554387394253	0.993554387394253
seq169	1093	0.0250749492881629	0.812120520192218	0.993554387394253	0.993554387394253
seq170	1082	0.0250622670799937	0.812172414866786	0.993554387394253	0.993554387394253
seq171	1069	0.0445362323290328	0.720277325140894	0.993554387394253	0.993554387394253
seq172	1067	0.234717516705424	0.352510145408878	0.993554387394253	0.993554387394253
seq173	1066	0.104726616353555	0.543316484862323	0.993554387394253	0.993554387394253
seq174	1048	0.299442044699241	0.293495521489585	0.993554387394253	0.993554387394253
seq175	1043	0.0542938751644626	0.682736717558044	0.993554387394253	0.993554387394253
seq176	1037	0.155263437671275	0.453040508982968	0.993554387394253	0.993554387394253
seq177	1032	0.0365252082735502	0.754662736509979	0.993554387394253	0.993554387394253
seq178	1029	0.070909411424711	0.628953076835255	0.993554387394253	0.993554387394253
seq179	1027	0.149162429901002	0.462412687210039	0.993554387394253	0.993554387394253
seq180	1016	0.0664396007479377	0.642642891986424	0.993554387394253	0.993554387394253
seq181	1013	0.0428599326476163	0.727096285379194	0.993554387394253	0.993554387394253
seq182	1012	0.130511225269047	0.493580628755877	0.993554387394253	0.993554387394253
seq183	1011	0.0180794824092002	0.855712046829754	0.993554387394253	0.993554387394253
seq184	1009	0.0521945810240647	0.69038599258944	0.993554387394253	0.993554387394253
seq185	1006	0.0585537059981721	0.668226966548693	0.993554387394253	0.993554387394253
seq186	1005	0.146633835338422	0.466398198216899	0.993554387394253	0.993554387394253
seq187	1005	0.222153063460906	0.366480191802717	0.993554387394253	0.993554387394253
seq188	1005	0.0675651236173874	0.63920746452999	0.993554387394253	0.993554387394253
seq189	999	0.152399980249678	0.548464985371996	0.993554387394253	0.993554387394253
seq190	993	0.141165154342569	0.568233159278599	0.993554387394253	0.993554387394253
seq191	990	0.0911676049651387	0.673362219012702	0.993554387394253	0.993554387394253
seq192	980	0.0426934916279966	0.818983075954524	0.993554387394253	0.993554387394253
seq193	978	0.0769744897506936	0.709913713291116	0.993554387394253	0.993554387394253
seq194	973	0.14190155262057	0.56705551235048	0.993554387394253	0.993554387394253
seq195	968	0.14497876012649	0.561611672777099	0.993554387394253	0.993554387394253
seq196	961	0.0515052161404577	0.787453245935637	0.993554387394253	0.993554387394253
seq197	959	0.362200657079922	0.300981372440099	0.993554387394253	0.993554387394253
seq198	957	0.078045740769873	0.707010332185313	0.993554387394253	0.993554387394253
seq199	957	0.0274550907827054	0.879643002629337	0.993554387394253	0.993554387394253
seq200	956	0.237111463226518	0.427174758360182	0.993554387394253	0.993554387394253
seq201	955	0.0923878846721347	0.670451431322446	0.993554387394253	0.993554387394253
seq202	954	0.278746811384661	0.380616968484983	0.993554387394253	0.993554387394253
seq203	948	0.264133107284515	0.395970818057253	0.993554387394253	0.993554387394253
seq204	947	0.034103378258498	0.852164574306559	0.993554387394253	0.993554387394253
seq205	947	0.0454298789843869	0.808917527682109	0.993554387394253	0.993554387394253
seq206	938	0.0339854629949665	0.852616375958227	0.993554387394253	0.993554387394253
seq207	937	0.33497395976194	0.324460245157945	0.993554387394253	0.993554387394253
seq208	922	0.224875410539769	0.442439728919009	0.993554387394253	0.993554387394253
seq209	911	0.0701460404402492	0.728578306114135	0.993554387394253	0.993554387394253
seq210	908	0.0838368598134946	0.692041625004629	0.993554387394253	0.993554387394253
seq211	905	0.437522758681813	0.241225049068622	0.993554387394253	0.993554387394253
seq212	905	0.160742605767131	0.535207199200089	0.993554387394253	0.993554387394253
seq213	901	0.0960361304681217	0.661533903640336	0.993554387394253	0.993554387394253
seq214	900	0.0998538807333995	0.652920045920824	0.993554387394253	0.993554387394253
seq215	899	0.255824551553717	0.405673443691442	0.993554387394253	0.993554387394253
seq216	894	0.0296810616696499	0.870421804984631	0.993554387394253	0.993554387394253
seq217	891	0.0103076732698293	0.96043402584898	0.993554387394253	0.993554387394253
seq218	889	0.391040124235586	0.276643335925638	0.993554387394253	0.993554387394253
seq219	889	0.0521210634508035	0.785342369366367	0.993554387394253	0.993554387394253
seq220	887	0.0447760155894369	0.811243195200533	0.993554387394253	0.993554387394253
seq221	885	0.133300132567231	0.582246417064771	0.993554387394253	0.993554387394253
seq222	879	0.0747495779760222	0.715764915009443	0.993554387394253	0.993554387394253
seq223	878	0.108822298897615	0.632366774062141	0.993554387394253	0.993554387394253
seq224	878	0.102642144191758	0.646313372588231	0.993554387394253	0.993554387394253
seq225	876	0.0722367552140469	0.722341962004222	0.993554387394253	0.993554387394253
seq226	875	0.173562815206075	0.514735399770396	0.993554387394253	0.993554387394253
seq227	871	0.140204316755729	0.569899640780654	0.993554387394253	0.993554387394253
seq228	870	0.124433867662401	0.598896418916417	0.993554387394253	0.993554387394253
seq229	867	0.235073721974978	0.429641150983224	0.993554387394253	0.993554387394253
seq230	863	0.0996164238604162	0.65332740806577	0.993554387394253	0.993554387394253
seq231	861	0.0168039418885555	0.928370921749435	0.993554387394253	0.993554387394253
seq232	853	0.0230029590645422	0.899588934562826	0.993554387394253	0.993554387394253
seq233	853	0.243795819066005	0.419464503944006	0.993554387394253	0.993554387394253
seq234	851	0.197301740576989	0.479376365589009	0.993554387394253	0.993554387394253
seq235	848	0.0901640154013652	0.675739732622301	0.993554387394253	0.993554387394253
seq236	846	0.10960804840481	0.630648446468911	0.993554387394253	0.993554387394253
seq237	844	0.199473675296161	0.476198940858423	0.993554387394253	0.993554387394253
seq238	843	0.0855305307658684	0.6877383994371	0.993554387394253	0.993554387394253
seq239	839	0.0952077504386909	0.663496648520535	0.993554387394253	0.993554387394253
seq240	829	0.0597758731624905	0.759982224197311	0.993554387394253	0.993554387394253
seq241	827	0.670456488416429	0.103892160130356	0.993554387394253	0.993554387394253
seq242	821	0.27277531104143	0.387031070621783	0.993554387394253	0.993554387394253
seq243	819	0.082552688213037	0.695233862904122	0.993554387394253	0.993554387394253
seq244	817	0.380360042158	0.285346072658593	0.993554387394253	0.993554387394253
seq245	817	0.0475016064714451	0.801740547346591	0.993554387394253	0.993554387394253
seq246	816	0.103781190750595	0.643572936340407	0.993554387394253	0.993554387394253
seq247	816	0.0734629031687917	0.71896455949339	0.993554387394253	0.993554387394253
seq248	815	0.360778647162692	0.302114579861497	0.993554387394253	0.993554387394253
seq249	813	0.056304447732103	0.771158760137763	0.993554387394253	0.993554387394253
seq250	811	0.0322331932558055	0.859689664111395	0.993554387394253	0.993554387394253
seq251	811	0.373306505214439	0.291352812650446	0.993554387394253	0.993554387394253
seq252	809	0.25498826516175	0.406554827241418	0.993554387394253	0.993554387394253
seq253	803	0.153891449134312	0.545954153242232	0.993554387394253	0.993554387394253
seq254	795	0.088646160806096	0.679680035551605	0.993554387394253	0.993554387394253
seq255	791	0.39520705875509	0.273458504610599	0.993554387394253	0.993554387394253
seq256	791	0.115606084724398	0.616916638891975	0.993554387394253	0.993554387394253
seq257	787	0.0896124833491349	0.676984038810503	0.993554387394253	0.993554387394253
seq258	785	0.232735901587471	0.432537125504574	0.993554387394253	0.993554387394253
seq259	781	0.00885669289484023	0.967114765026108	0.993554387394253	0.993554387394253
seq260	777	0.492599541299853	0.203451468355368	0.993554387394253	0.993554387394253
seq261	777	0.403860576084386	0.266429655964152	0.993554387394253	0.993554387394253
seq262	776	0.0355042263847415	0.846617042550828	0.993554387394253	0.993554387394253
seq263	773	0.201518421347644	0.473473317779506	0.993554387394253	0.993554387394253
seq264	770	0.0737492386838994	0.718201681294671	0.993554387394253	0.993554387394253
seq265	767	0.0207752745280574	0.909898900122209	0.993554387394253	0.993554387394253
seq266	764	0.382198161217831	0.283872162352331	0.993554387394253	0.993554387394253
seq267	756	0.153041616160592	0.547405843795134	0.993554387394253	0.993554387394253
seq268	754	0.201704085696171	0.473206680739177	0.993554387394253	0.993554387394253
seq269	754	0.581472406792782	0.150316631485391	0.993554387394253	0.993554387394253
seq270	754	0.328258467658495	0.330948413139281	0.993554387394253	0.993554387394253
seq271	749	0.493307816856549	0.203066325963782	0.993554387394253	0.993554387394253
seq272	745	0.0476630058370522	0.801214679850387	0.993554387394253	0.993554387394253
seq273	743	0.0711623260072073	0.725519386734807	0.993554387394253	0.993554387394253
seq274	743	0.113040428564114	0.622767840610303	0.993554387394253	0.993554387394253
seq275	742	0.098146294688292	0.65671962374551	0.993554387394253	0.993554387394253
seq276	742	0.277034901430098	0.382379735584935	0.993554387394253	0.993554387394253
seq277	740	0.297754874341384	0.360819168240566	0.993554387394253	0.993554387394253
seq278	740	0.0944873007506473	0.665355701218383	0.993554387394253	0.993554387394253
seq279	739	0.11118676208016	0.6269007147354	0.993554387394253	0.993554387394253
seq280	734	0.266663264261569	0.393326667407325	0.993554387394253	0.993554387394253
seq281	734	0.784304171415342	0.054549494500611	0.993554387394253	0.993554387394253
seq282	733	0.0408071605506317	0.826226715550124	0.993554387394253	0.993554387394253
seq283	733	0.0430160591646204	0.817753582935229	0.993554387394253	0.993554387394253
seq284	731	0.0628491302242663	0.750620301447987	0.993554387394253	0.993554387394253
seq285	726	0.0994830711373047	0.653601451690553	0.993554387394253	0.993554387394253
seq286	721	0.00444783068507108	0.987979113431841	0.996555321013715	0.996555321013715
seq287	716	0.17051082950617	0.51917194385809	0.993554387394253	0.993554387394253
seq288	715	0.122577412271741	0.60250342554531	0.993554387394253	0.993554387394253
seq289	714	0.0605112990253607	0.757612117172166	0.993554387394253	0.993554387394253
seq290	714	0.12173175487244	0.604355071658705	0.993554387394253	0.993554387394253
seq291	713	0.0386946768536961	0.833988816057475	0.993554387394253	0.993554387394253
seq292	713	0.17603953820028	0.510921008776803	0.993554387394253	0.993554387394253
seq293	712	0.029228827538729	0.872206791837944	0.993554387394253	0.993554387394253
seq294	711	0.329241892689255	0.329970743991408	0.993554387394253	0.993554387394253
seq295	711	0.0494486876673081	0.794793171129134	0.993554387394253	0.993554387394253
seq296	709	0.0428240570205017	0.818501647965041	0.993554387394253	0.993554387394253
seq297	707	0.489389073872996	0.205606784431359	0.993554387394253	0.993554387394253
seq298	705	0.991225925970921	0.000177758026885902	0.0413109654482836	0.0413109654482836
seq299	705	0.0823295109832393	0.695737510646965	0.993554387394253	0.993554387394253
seq300	704	0.310482842025659	0.348220568085028	0.993554387394253	0.993554387394253
seq301	702	0.0343501280503462	0.851075806391882	0.993554387394253	0.993554387394253
seq302	699	0.0515866860350466	0.787238454986483	0.993554387394253	0.993554387394253
seq303	699	0.0705721447011094	0.727422878939377	0.993554387394253	0.993554387394253
seq304	698	0.0981541715962462	0.656712217161056	0.993554387394253	0.993554387394253
seq305	694	0.157571618790106	0.540221456875162	0.993554387394253	0.993554387394253
seq306	693	0.00988483389513855	0.962344924638003	0.993554387394253	0.993554387394253
seq307	691	0.0429487419481623	0.818035033144465	0.993554387394253	0.993554387394253
seq308	690	0.122474402768276	0.602777469170092	0.993554387394253	0.993554387394253
seq309	688	0.345044247909448	0.315557530644743	0.993554387394253	0.993554387394253
seq310	688	0.393007865953866	0.275139799281561	0.993554387394253	0.993554387394253
seq311	687	0.344329786831303	0.316075991556494	0.993554387394253	0.993554387394253
seq312	678	0.291853041592058	0.3664777987631	0.993554387394253	0.993554387394253
seq313	674	0.0988157028964864	0.655193867348072	0.993554387394253	0.993554387394253
seq314	673	0.0951595440205455	0.663659593378514	0.993554387394253	0.993554387394253
seq315	673	0.0247399060441734	0.891760174795393	0.993554387394253	0.993554387394253
seq316	671	0.0543631283247618	0.777602488612376	0.993554387394253	0.993554387394253
seq317	671	0.147667827527232	0.556708513868829	0.993554387394253	0.993554387394253
seq318	670	0.255459484552255	0.40602155316076	0.993554387394253	0.993554387394253
seq319	669	0.175373110899625	0.511987556938118	0.993554387394253	0.993554387394253
seq320	667	0.0469082297429911	0.803792171240233	0.993554387394253	0.993554387394253
seq321	667	0.0511903696229516	0.788423508499056	0.993554387394253	0.993554387394253
seq322	662	0.318330262839925	0.340576972928934	0.993554387394253	0.993554387394253
seq323	661	0.0322286177250123	0.859711883864756	0.993554387394253	0.993554387394253
seq324	661	0.0533948633798604	0.781083583305559	0.993554387394253	0.993554387394253
seq325	659	0.609278929264456	0.134822056808503	0.993554387394253	0.993554387394253
seq326	659	0.162268672920067	0.532807465837129	0.993554387394253	0.993554387394253
seq327	658	0.109607198206369	0.630648446468911	0.993554387394253	0.993554387394253
seq328	657	0.0402706593113081	0.827982076065622	0.993554387394253	0.993554387394253
seq329	655	0.388002094187936	0.279020849535237	0.993554387394253	0.993554387394253
seq330	655	0.0218846770284715	0.904566159315632	0.993554387394253	0.993554387394253
seq331	655	0.0161083578315054	0.931844609858164	0.993554387394253	0.993554387394253
seq332	653	0.0792744244775926	0.704047698403881	0.993554387394253	0.993554387394253
seq333	652	0.0256429937080804	0.887708773099285	0.993554387394253	0.993554387394253
seq334	652	0.064866607113054	0.744361737584713	0.993554387394253	0.993554387394253
seq335	650	0.0696956297257931	0.729896678146873	0.993554387394253	0.993554387394253
seq336	650	0.0121542152352477	0.95120542161982	0.993554387394253	0.993554387394253
seq337	645	0.273079373056999	0.386660741399104	0.993554387394253	0.993554387394253
seq338	644	0.494771023506364	0.202118283153724	0.993554387394253	0.993554387394253
seq339	643	0.91000384956285	0.0132133466651854	0.767695441247272	0.767695441247272
seq340	641	0.0344365130774563	0.850779543013739	0.993554387394253	0.993554387394253
seq341	641	0.115526574310279	0.617094396918861	0.993554387394253	0.993554387394253
seq342	641	0.0180972027379807	0.922290115913047	0.993554387394253	0.993554387394253
seq343	639	0.113880142834333	0.620953227419176	0.993554387394253	0.993554387394253
seq344	638	0.138266273817174	0.573232603784765	0.993554387394253	0.993554387394253
seq345	637	0.0523045658697685	0.784616524089916	0.993554387394253	0.993554387394253
seq346	637	0.0635657206781305	0.748427952449728	0.993554387394253	0.993554387394253
seq347	636	0.320016847795032	0.339036403362589	0.993554387394253	0.993554387394253
seq348	635	0.327899668274687	0.331333555530867	0.993554387394253	0.993554387394253
seq349	632	0.071348573044588	0.72500833240751	0.993554387394253	0.993554387394253
seq350	631	0.0647296431195454	0.744828352405288	0.993554387394253	0.993554387394253
seq351	629	0.0367092501801256	0.842039773358516	0.993554387394253	0.993554387394253
seq352	624	0.241398539948364	0.422138280931748	0.993554387394253	0.993554387394253
seq353	621	0.0116673559446504	0.953612561567233	0.993554387394253	0.993554387394253
seq354	619	0.0566417643574017	0.770129244898715	0.993554387394253	0.993554387394253
seq355	618	0.112428207290193	0.624197311409843	0.993554387394253	0.993554387394253
seq356	617	0.0234389619111524	0.897752101618339	0.993554387394253	0.993554387394253
seq357	616	0.128587984660593	0.591030626226716	0.993554387394253	0.993554387394253
seq358	616	0.0971612828218615	0.659008258341666	0.993554387394253	0.993554387394253
seq359	615	0.30062429370294	0.358093545161649	0.993554387394253	0.993554387394253
seq360	614	0.99853706867306	1.48131689071585e-05	0.00860645113505907	0.00860645113505907
seq361	612	0.13141868786937	0.585794171018035	0.993554387394253	0.993554387394253
seq362	611	0.0448895046725829	0.810835833055586	0.993554387394253	0.993554387394253
seq363	610	0.25015525738743	0.412331963115209	0.993554387394253	0.993554387394253
seq364	608	0.060890883491179	0.756390030737325	0.993554387394253	0.993554387394253
seq365	608	0.0866055469066102	0.684968336851461	0.993554387394253	0.993554387394253
seq366	608	0.42653942707713	0.249461170981002	0.993554387394253	0.993554387394253
seq367	606	0.274967744307715	0.384601710921009	0.993554387394253	0.993554387394253
seq368	606	0.748287748545737	0.0689108617561012	0.993554387394253	0.993554387394253
seq369	606	0.238810548060525	0.425086101544273	0.993554387394253	0.993554387394253
seq370	606	0.388781548256253	0.278376476687775	0.993554387394253	0.993554387394253
seq371	605	0.764004853507936	0.0625486057104766	0.993554387394253	0.993554387394253
seq372	604	0.626320894345494	0.125948968633115	0.993554387394253	0.993554387394253
seq373	603	0.0320750774688474	0.860400696218939	0.993554387394253	0.993554387394253
seq374	602	0.0745211180135931	0.716283375921194	0.993554387394253	0.993554387394253
seq375	602	0.303292980215334	0.355256823315928	0.993554387394253	0.993554387394253
seq376	600	0.115031193001178	0.618353516275969	0.993554387394253	0.993554387394253
seq377	597	0.0226620285482813	0.90110728437581	0.993554387394253	0.993554387394253
seq378	597	0.238767610193198	0.425152760804355	0.993554387394253	0.993554387394253
seq379	596	0.0437617813604931	0.815057586194127	0.993554387394253	0.993554387394253
seq380	595	0.078723205294025	0.705388290189979	0.993554387394253	0.993554387394253
seq381	594	0.016614616018864	0.929170832870422	0.993554387394253	0.993554387394253
seq382	593	0.0486573983778147	0.797644706143762	0.993554387394253	0.993554387394253
seq383	593	0.121331633594397	0.605192015701959	0.993554387394253	0.993554387394253
seq384	592	0.0513980859178227	0.787756915898233	0.993554387394253	0.993554387394253
seq385	592	0.0281568505403849	0.876628522756731	0.993554387394253	0.993554387394253
seq386	590	0.561754770265218	0.161374662074584	0.993554387394253	0.993554387394253
seq387	589	0.0477957934673546	0.800822130874347	0.993554387394253	0.993554387394253
seq388	589	0.117770541778909	0.612450468466467	0.993554387394253	0.993554387394253
seq389	589	0.389833949404874	0.277628411657964	0.993554387394253	0.993554387394253
seq390	589	0.0545034834976149	0.777032181609451	0.993554387394253	0.993554387394253
seq391	584	0.0293339831605605	0.871732770432915	0.993554387394253	0.993554387394253
seq392	582	0.00519087008018085	0.984690589934452	0.995511944727558	0.995511944727558
seq393	582	0.576031867336368	0.153353331111358	0.993554387394253	0.993554387394253
seq394	580	0.0399670876682995	0.829130096655927	0.993554387394253	0.993554387394253
seq395	580	0.0522093350834762	0.785031292819316	0.993554387394253	0.993554387394253
seq396	580	0.229881572002274	0.436203384809095	0.993554387394253	0.993554387394253
seq397	579	0.0562256033501018	0.771477243269266	0.993554387394253	0.993554387394253
seq398	577	0.360571133079284	0.302240491797208	0.993554387394253	0.993554387394253
seq399	576	0.0175274328394597	0.924897233640707	0.993554387394253	0.993554387394253
seq400	573	0.35464908648099	0.307136244121024	0.993554387394253	0.993554387394253
seq401	571	0.114195680943842	0.620286634818354	0.993554387394253	0.993554387394253
seq402	571	0.222297776129117	0.445609747065141	0.993554387394253	0.993554387394253
seq403	570	0.235618606175485	0.428959745213495	0.993554387394253	0.993554387394253
seq404	570	0.150381891057541	0.552205310521053	0.993554387394253	0.993554387394253
seq405	569	0.36561878842668	0.297937266229678	0.993554387394253	0.993554387394253
seq406	567	0.0133936830117278	0.945013517016628	0.993554387394253	0.993554387394253
seq407	566	0.310691271817316	0.34799837055142	0.993554387394253	0.993554387394253
seq408	565	0.0789084605981629	0.70491426878495	0.993554387394253	0.993554387394253
seq409	565	0.310169650278029	0.348524238047624	0.993554387394253	0.993554387394253
seq410	564	0.728125382286185	0.0775173128911602	0.993554387394253	0.993554387394253
seq411	564	0.185941718906718	0.495537532866719	0.993554387394253	0.993554387394253
seq412	564	0.0306279518903641	0.86646668888642	0.993554387394253	0.993554387394253
seq413	564	0.0711032724164152	0.725734177683961	0.993554387394253	0.993554387394253
seq414	563	0.366275646946835	0.297396585564567	0.993554387394253	0.993554387394253
seq415	562	0.0530252073449014	0.782246417064771	0.993554387394253	0.993554387394253
seq416	561	0.235796588462353	0.428744954264341	0.993554387394253	0.993554387394253
seq417	560	0.0985025330728805	0.656008591637966	0.993554387394253	0.993554387394253
seq418	560	0.0857440377787572	0.687271784616524	0.993554387394253	0.993554387394253
seq419	560	0.0627336780743781	0.751064696515202	0.993554387394253	0.993554387394253
seq420	557	0.199416420798613	0.476243380365145	0.993554387394253	0.993554387394253
seq421	557	0.372573217144942	0.291893493315558	0.993554387394253	0.993554387394253
seq422	554	0.0290852413454863	0.872843758100952	0.993554387394253	0.993554387394253
seq423	553	0.4359992167909	0.242365663074473	0.993554387394253	0.993554387394253
seq424	553	0.0575935272355053	0.76705551235048	0.993554387394253	0.993554387394253
seq425	552	0.0808254339807575	0.700077769136763	0.993554387394253	0.993554387394253
seq426	551	0.0836467063392787	0.692619338592008	0.993554387394253	0.993554387394253
seq427	551	0.451959299811981	0.230618820131097	0.993554387394253	0.993554387394253
seq428	549	0.120815612560327	0.606162278265378	0.993554387394253	0.993554387394253
seq429	546	0.481916042543771	0.210487723586268	0.993554387394253	0.993554387394253
seq430	546	0.360020215004856	0.30272191978669	0.993554387394253	0.993554387394253
seq431	545	0.111871000338013	0.625397178091323	0.993554387394253	0.993554387394253
seq432	544	0.241399684945424	0.422138280931748	0.993554387394253	0.993554387394253
seq433	544	0.129936642196546	0.588653112617117	0.993554387394253	0.993554387394253
seq434	542	0.302580791421734	0.35592341591675	0.993554387394253	0.993554387394253
seq435	542	0.198237303553132	0.477969114542829	0.993554387394253	0.993554387394253
seq436	542	0.2578487444822	0.403295930081843	0.993554387394253	0.993554387394253
seq437	541	0.280915438888588	0.378380179980002	0.993554387394253	0.993554387394253
seq438	541	0.335923605159846	0.323630707699145	0.993554387394253	0.993554387394253
seq439	540	0.0113546474953044	0.955093878457949	0.993554387394253	0.993554387394253
seq440	539	0.187199874500394	0.493774765766767	0.993554387394253	0.993554387394253
seq441	539	0.012155602064181	0.951198015035366	0.993554387394253	0.993554387394253
seq442	538	0.0487714892650314	0.797252157167722	0.993554387394253	0.993554387394253
seq443	536	0.0404061786842073	0.827537680998408	0.993554387394253	0.993554387394253
seq444	534	0.209635271917991	0.46224493574788	0.993554387394253	0.993554387394253
seq445	534	0.159294389681568	0.537710624745399	0.993554387394253	0.993554387394253
seq446	533	0.023874310356729	0.895744917231419	0.993554387394253	0.993554387394253
seq447	533	0.0526744566143668	0.783461096915158	0.993554387394253	0.993554387394253
seq448	533	0.1346318834795	0.579661519090471	0.993554387394253	0.993554387394253
seq449	532	0.0337475010457708	0.853549605599378	0.993554387394253	0.993554387394253
seq450	530	0.214299363672534	0.456104877235863	0.993554387394253	0.993554387394253
seq451	530	0.00820714206231867	0.970410695107951	0.993554387394253	0.993554387394253
seq452	529	0.163284512690838	0.53113357775062	0.993554387394253	0.993554387394253
seq453	529	0.135224079318784	0.578632003851424	0.993554387394253	0.993554387394253
seq454	529	0.21747970951399	0.451594267303633	0.993554387394253	0.993554387394253
seq455	529	0.0176135755878416	0.924467651742399	0.993554387394253	0.993554387394253
seq456	529	0.126191289268058	0.595600488834574	0.993554387394253	0.993554387394253
seq457	528	0.128762711365645	0.590704736510758	0.993554387394253	0.993554387394253
seq458	527	0.430476009077838	0.246491130615117	0.993554387394253	0.993554387394253
seq459	527	0.0186585308118436	0.91958671258749	0.993554387394253	0.993554387394253
seq460	525	0.157600867608665	0.540177017368441	0.993554387394253	0.993554387394253
seq461	523	0.559076163424633	0.162781913120764	0.993554387394253	0.993554387394253
seq462	523	0.0762979048311252	0.711565381624264	0.993554387394253	0.993554387394253
seq463	523	0.595975066047068	0.141887938377217	0.993554387394253	0.993554387394253
seq464	522	0.0286345122552669	0.874717623967707	0.993554387394253	0.993554387394253
seq465	522	0.360568518582168	0.302240491797208	0.993554387394253	0.993554387394253
seq466	522	0.0249741818274976	0.890797318816428	0.993554387394253	0.993554387394253
seq467	522	0.104733366396169	0.641521312446765	0.993554387394253	0.993554387394253
seq468	520	0.170619866480843	0.519023812169018	0.993554387394253	0.993554387394253
seq469	520	0.499197661626837	0.199237121801281	0.993554387394253	0.993554387394253
seq470	520	0.408395545496947	0.26294856127097	0.993554387394253	0.993554387394253
seq471	519	0.0245290182316313	0.892634151760915	0.993554387394253	0.993554387394253
seq472	519	0.247928650427807	0.414746509647076	0.993554387394253	0.993554387394253
seq473	519	0.168922480281781	0.521867940599193	0.993554387394253	0.993554387394253
seq474	519	0.0539336348879084	0.779143058178721	0.993554387394253	0.993554387394253
seq475	518	0.23577731290404	0.428789393771062	0.993554387394253	0.993554387394253
seq476	517	0.0562412454787925	0.771410584009184	0.993554387394253	0.993554387394253
seq477	517	0.00884391203085669	0.967218457208458	0.993554387394253	0.993554387394253
seq478	515	0.019154907505898	0.91726845165352	0.993554387394253	0.993554387394253
seq479	514	0.551817331786003	0.167070325519387	0.993554387394253	0.993554387394253
seq480	513	0.628615856587202	0.12469725586046	0.993554387394253	0.993554387394253
seq481	513	0.0319962890290615	0.860689553012628	0.993554387394253	0.993554387394253
seq482	512	0.187777900169334	0.49297485464578	0.993554387394253	0.993554387394253
seq483	512	0.666306627034086	0.105773432581565	0.993554387394253	0.993554387394253
seq484	512	0.223616809642197	0.443958078731993	0.993554387394253	0.993554387394253
seq485	508	0.101714543475703	0.648579787431026	0.993554387394253	0.993554387394253
seq486	508	0.037073987047295	0.840491797207718	0.993554387394253	0.993554387394253
seq487	507	0.00856419275250223	0.968618301670185	0.993554387394253	0.993554387394253
seq488	507	0.0277086360498577	0.878576454468022	0.993554387394253	0.993554387394253
seq489	507	0.00749366035143884	0.973825130541051	0.993554387394253	0.993554387394253
seq490	507	0.156472468339262	0.54197681739066	0.993554387394253	0.993554387394253
seq491	506	0.073135738444561	0.719905195718994	0.993554387394253	0.993554387394253
seq492	506	0.356249587650192	0.305654927230308	0.993554387394253	0.993554387394253
seq493	506	0.0651368161920001	0.743576639632633	0.993554387394253	0.993554387394253
seq494	506	0.0998261710574545	0.653008924934267	0.993554387394253	0.993554387394253
seq495	505	0.0346646525933994	0.849838906788135	0.993554387394253	0.993554387394253
seq496	504	0.358623907744497	0.303825500870274	0.993554387394253	0.993554387394253
seq497	504	0.0282602650903398	0.876132281598341	0.993554387394253	0.993554387394253
seq498	503	0.0402224297612416	0.828219086768137	0.993554387394253	0.993554387394253
seq499	503	0.0979435648120413	0.657223271488353	0.993554387394253	0.993554387394253
seq500	501	0.363547373317553	0.299759286005259	0.993554387394253	0.993554387394253
seq501	501	0.0209413924153388	0.908965670481058	0.993554387394253	0.993554387394253
seq502	501	0.39825939298972	0.27089582638966	0.993554387394253	0.993554387394253
seq503	500	0.366602128975458	0.297026256341888	0.993554387394253	0.993554387394253
seq504	499	0.466229708917929	0.221108765692701	0.993554387394253	0.993554387394253
seq505	499	0.101516827517405	0.64900196274488	0.993554387394253	0.993554387394253
seq506	498	0.0772660513068022	0.709217494352479	0.993554387394253	0.993554387394253
seq507	497	0.178614067150039	0.50683998074288	0.993554387394253	0.993554387394253
seq508	496	0.709232552984894	0.0860126652594156	0.993554387394253	0.993554387394253
seq509	496	0.0898232853192836	0.676487797652113	0.993554387394253	0.993554387394253
seq510	495	0.221764029812011	0.446172647483613	0.993554387394253	0.993554387394253
seq511	495	0.421428052719737	0.253112617116617	0.993554387394253	0.993554387394253
seq512	495	0.0684803917148797	0.733333333333333	0.993554387394253	0.993554387394253
seq513	495	0.0118757332340775	0.952568233159279	0.993554387394253	0.993554387394253
seq514	492	0.279970817137517	0.379394882050143	0.993554387394253	0.993554387394253
seq515	491	0.268992208111701	0.39095656038218	0.993554387394253	0.993554387394253
seq516	490	0.0344256446662381	0.850816575936007	0.993554387394253	0.993554387394253
seq517	490	0.121737181544539	0.604347665074251	0.993554387394253	0.993554387394253
seq518	490	0.271537300398458	0.388149464874273	0.993554387394253	0.993554387394253
seq519	490	0.0173631300564564	0.92568973817724	0.993554387394253	0.993554387394253
seq520	490	0.0695712582201537	0.730296633707366	0.993554387394253	0.993554387394253
seq521	489	0.00574240209486806	0.982253823649224	0.995511944727558	0.995511944727558
seq522	489	0.183534391018536	0.499159352664519	0.993554387394253	0.993554387394253
seq523	486	0.0541802452356097	0.778380179980002	0.993554387394253	0.993554387394253
seq524	486	0.131008180033084	0.586727400659186	0.993554387394253	0.993554387394253
seq525	486	0.126122514899963	0.59577824686146	0.993554387394253	0.993554387394253
seq526	486	0.0440801671946618	0.81384290634374	0.993554387394253	0.993554387394253
seq527	485	0.125146459218848	0.597637299559308	0.993554387394253	0.993554387394253
seq528	483	0.162817679895247	0.531970521793875	0.993554387394253	0.993554387394253
seq529	483	0.634808453036866	0.12138651260971	0.993554387394253	0.993554387394253
seq530	479	0.112480004792787	0.624071399474132	0.993554387394253	0.993554387394253
seq531	479	0.030440936903942	0.86727400659186	0.993554387394253	0.993554387394253
seq532	478	0.875687190330083	0.0230196644817243	0.990698152880135	0.990698152880135
seq533	478	0.0229680467475168	0.899685220160723	0.993554387394253	0.993554387394253
seq534	478	0.274994590764035	0.38454245824538	0.993554387394253	0.993554387394253
seq535	478	0.647615012444439	0.114965003888457	0.993554387394253	0.993554387394253
seq536	477	0.047438015194775	0.801881272451209	0.993554387394253	0.993554387394253
seq537	477	0.0619379588656475	0.75310891382439	0.993554387394253	0.993554387394253
seq538	477	0.455632268881456	0.228078361663519	0.993554387394253	0.993554387394253
seq539	477	0.749859412082871	0.0682590823241862	0.993554387394253	0.993554387394253
seq540	477	0.10837593950081	0.633277783949932	0.993554387394253	0.993554387394253
seq541	477	0.0933279780395916	0.668118357219568	0.993554387394253	0.993554387394253
seq542	477	0.0791760666759572	0.704277302521942	0.993554387394253	0.993554387394253
seq543	475	0.283695206249017	0.375306447431767	0.993554387394253	0.993554387394253
seq544	475	0.294995827136225	0.363507758397215	0.993554387394253	0.993554387394253
seq545	475	0.0311494023291802	0.864340999148243	0.993554387394253	0.993554387394253
seq546	475	0.210922508502947	0.460415509387846	0.993554387394253	0.993554387394253
seq547	473	0.0509284782983014	0.789482650075917	0.993554387394253	0.993554387394253
seq548	473	0.105628581738159	0.639299337110691	0.993554387394253	0.993554387394253
seq549	472	0.1645094740471	0.529074547272525	0.993554387394253	0.993554387394253
seq550	472	0.0480892749500237	0.79971114320631	0.993554387394253	0.993554387394253
seq551	472	0.307295640342969	0.35141280598452	0.993554387394253	0.993554387394253
seq552	472	0.0304660446833966	0.867199940747324	0.993554387394253	0.993554387394253
seq553	471	0.103661586247723	0.643913639225271	0.993554387394253	0.993554387394253
seq554	469	0.0175166117186603	0.924912046809614	0.993554387394253	0.993554387394253
seq555	469	0.0198406246663201	0.914068807169574	0.993554387394253	0.993554387394253
seq556	468	0.168711816493496	0.522223456652964	0.993554387394253	0.993554387394253
seq557	468	0.664560495539524	0.106654816131541	0.993554387394253	0.993554387394253
seq558	468	0.054070484601266	0.778698663111506	0.993554387394253	0.993554387394253
seq559	468	0.0315562300492313	0.862600451801652	0.993554387394253	0.993554387394253
seq560	467	0.240828728914882	0.422723401103581	0.993554387394253	0.993554387394253
seq561	467	0.0144496077790427	0.939799281561308	0.993554387394253	0.993554387394253
seq562	466	0.0136185447661716	0.943969188608673	0.993554387394253	0.993554387394253
seq563	466	0.234354454623435	0.430507721364293	0.993554387394253	0.993554387394253
seq564	466	0.226668209754139	0.440173314076214	0.993554387394253	0.993554387394253
seq565	466	0.146637029634125	0.558537940228863	0.993554387394253	0.993554387394253
seq566	465	0.0294446288047205	0.871347628041329	0.993554387394253	0.993554387394253
seq567	464	0.718806722312507	0.0817612857830611	0.993554387394253	0.993554387394253
seq568	464	0.00384407995437645	0.990638077250676	0.998006746893588	0.998006746893588
seq569	463	0.260337793946227	0.400318483131504	0.993554387394253	0.993554387394253
seq570	463	0.00735626237368605	0.97440284412843	0.993554387394253	0.993554387394253
seq571	462	0.625476372489951	0.126326704440247	0.993554387394253	0.993554387394253
seq572	459	0.0549706606313219	0.775632337147724	0.993554387394253	0.993554387394253
seq573	459	0.00728682417207142	0.974743547013295	0.993554387394253	0.993554387394253
seq574	458	0.040528410192606	0.827167351775729	0.993554387394253	0.993554387394253
seq575	457	0.0673336953458797	0.737006999222309	0.993554387394253	0.993554387394253
seq576	457	0.0480693250146691	0.799770395881939	0.993554387394253	0.993554387394253
seq577	456	0.0447718360269603	0.811272821538348	0.993554387394253	0.993554387394253
seq578	456	0.332464317885822	0.326904418027627	0.993554387394253	0.993554387394253
seq579	456	0.0128750915372094	0.947613228159834	0.993554387394253	0.993554387394253
seq580	455	0.134504542760817	0.579861496870718	0.993554387394253	0.993554387394253
seq581	455	0.410005577105809	0.261637595822686	0.993554387394253	0.993554387394253
seq582	454	0.175960178409347	0.511046920712513	0.993554387394253	0.993554387394253
seq583	454	0.0235284994566002	0.89730029996667	0.993554387394253	0.993554387394253
seq584	453	0.256194355503937	0.405266081546495	0.993554387394253	0.993554387394253
seq585	453	0.0737007490319343	0.718379439321557	0.993554387394253	0.993554387394253
seq586	453	0.0822747985409359	0.69587082916713	0.993554387394253	0.993554387394253
seq587	453	0.206864240882623	0.466066733325927	0.993554387394253	0.993554387394253
seq588	453	0.0648100098202574	0.744591341702774	0.993554387394253	0.993554387394253
seq589	452	0.572073392658472	0.155516053771803	0.993554387394253	0.993554387394253
seq590	451	0.464873999435142	0.222027182164945	0.993554387394253	0.993554387394253
seq591	451	0.0392559377131097	0.831692774876866	0.993554387394253	0.993554387394253
seq592	451	0.140802520064862	0.568840499203792	0.993554387394253	0.993554387394253
seq593	450	0.105165575653789	0.640491797207718	0.993554387394253	0.993554387394253
seq594	450	0.386962213994368	0.27981335407177	0.993554387394253	0.993554387394253
seq595	449	0.901842000586491	0.0153020034810947	0.84671085928724	0.84671085928724
seq596	448	0.0454559225476088	0.808784209161945	0.993554387394253	0.993554387394253
seq597	448	0.128099275522287	0.591978669036774	0.993554387394253	0.993554387394253
seq598	447	0.103875942919667	0.64337295856016	0.993554387394253	0.993554387394253
seq599	447	0.0560538136973154	0.772010517349924	0.993554387394253	0.993554387394253
seq600	446	0.124729486247464	0.598326111913491	0.993554387394253	0.993554387394253
seq601	445	0.273304906500429	0.386386697774321	0.993554387394253	0.993554387394253
seq602	445	0.501568042518273	0.197815057586194	0.993554387394253	0.993554387394253
seq603	445	0.77958251756899	0.0562974484316557	0.993554387394253	0.993554387394253
seq604	444	0.00943850022775056	0.964440988038366	0.993554387394253	0.993554387394253
seq605	444	0.147486210819014	0.557160315520498	0.993554387394253	0.993554387394253
seq606	443	0.767215723322581	0.0614524312113469	0.993554387394253	0.993554387394253
seq607	442	0.282202536844292	0.377061807947265	0.993554387394253	0.993554387394253
seq608	441	0.0839829557429078	0.691634262859682	0.993554387394253	0.993554387394253
seq609	440	0.0231591994464296	0.898907528793097	0.993554387394253	0.993554387394253
seq610	440	0.548407924735071	0.168907158463874	0.993554387394253	0.993554387394253
seq611	440	0.382689270607537	0.283479613376292	0.993554387394253	0.993554387394253
seq612	440	0.781763419630386	0.0554382846350406	0.993554387394253	0.993554387394253
seq613	438	0.0561236458547396	0.77179572640077	0.993554387394253	0.993554387394253
seq614	438	0.00532963939859757	0.984142502684887	0.995511944727558	0.995511944727558
seq615	438	0.010216028120924	0.960811761656112	0.993554387394253	0.993554387394253
seq616	437	0.220544289748903	0.447735436803318	0.993554387394253	0.993554387394253
seq617	437	0.0460889032109785	0.806606673332593	0.993554387394253	0.993554387394253
seq618	436	0.133192276815946	0.582476021182831	0.993554387394253	0.993554387394253
seq619	436	0.0238092962891747	0.896033774025108	0.993554387394253	0.993554387394253
seq620	435	0.967682104888222	0.00209606340036292	0.202968805935143	0.202968805935143
seq621	435	0.0098671384169092	0.962426397066993	0.993554387394253	0.993554387394253
seq622	434	0.142488166231198	0.566018590526978	0.993554387394253	0.993554387394253
seq623	434	0.757679180620069	0.065111283931415	0.993554387394253	0.993554387394253
seq624	433	0.358031691149734	0.304321742028663	0.993554387394253	0.993554387394253
seq625	432	0.129331652250627	0.589549309336	0.993554387394253	0.993554387394253
seq626	432	0.0991373902905934	0.654445802318261	0.993554387394253	0.993554387394253
seq627	432	0.219346111495816	0.449253786616302	0.993554387394253	0.993554387394253
seq628	431	0.108617597644081	0.632788949375995	0.993554387394253	0.993554387394253
seq629	431	0.309408741511641	0.349309335999704	0.993554387394253	0.993554387394253
seq630	431	0.0844107578678101	0.690523275191645	0.993554387394253	0.993554387394253
seq631	431	0.00869590841503412	0.967959115653816	0.993554387394253	0.993554387394253
seq632	430	0.223686494815084	0.443884012887457	0.993554387394253	0.993554387394253
seq633	429	0.818532428657029	0.0416620375513832	0.993554387394253	0.993554387394253
seq634	429	0.144573840848169	0.562263452209014	0.993554387394253	0.993554387394253
seq635	427	0.414944500604689	0.257971336518165	0.993554387394253	0.993554387394253
seq636	427	0.320735991040697	0.338399437099582	0.993554387394253	0.993554387394253
seq637	427	0.121577359315452	0.604636521867941	0.993554387394253	0.993554387394253
seq638	427	0.0422150921538036	0.820753249638929	0.993554387394253	0.993554387394253
seq639	426	0.0208419068803032	0.90955079065289	0.993554387394253	0.993554387394253
seq640	426	0.0896160696980055	0.676969225641595	0.993554387394253	0.993554387394253
seq641	426	0.786311593349706	0.053705143872903	0.993554387394253	0.993554387394253
seq642	426	0.00643697398617512	0.978876421138392	0.995221446363634	0.995221446363634
seq643	426	0.168852496878355	0.521993852534903	0.993554387394253	0.993554387394253
seq644	425	0.760684224750761	0.0639484501722031	0.993554387394253	0.993554387394253
seq645	425	0.637776143995866	0.119882975965633	0.993554387394253	0.993554387394253
seq646	423	0.0321793380779089	0.85992667481391	0.993554387394253	0.993554387394253
seq647	423	0.33371987095184	0.325652705254972	0.993554387394253	0.993554387394253
seq648	423	0.201253316744137	0.47379180091101	0.993554387394253	0.993554387394253
seq649	422	0.0098143989917625	0.9626485946006	0.993554387394253	0.993554387394253
seq650	421	0.0735326579912384	0.718801614635411	0.993554387394253	0.993554387394253
seq651	421	0.315970205823429	0.342843387771729	0.993554387394253	0.993554387394253
seq652	421	0.229358752555647	0.436788504980928	0.993554387394253	0.993554387394253
seq653	421	0.0408266272284469	0.826160056290042	0.993554387394253	0.993554387394253
seq654	421	0.057548652774893	0.767233270377365	0.993554387394253	0.993554387394253
seq655	420	0.760232271500964	0.064126208199089	0.993554387394253	0.993554387394253
seq656	420	0.123660462173482	0.600377735807132	0.993554387394253	0.993554387394253
seq657	420	0.246953019332928	0.415894530237381	0.993554387394253	0.993554387394253
seq658	419	0.0588422752780647	0.763085583083361	0.993554387394253	0.993554387394253
seq659	419	0.00862550684953273	0.968351664629856	0.993554387394253	0.993554387394253
seq660	419	0.0398793051281545	0.829396733696256	0.993554387394253	0.993554387394253
seq661	418	0.0132936819176354	0.945509758175018	0.993554387394253	0.993554387394253
seq662	418	0.449419850497693	0.23242602673777	0.993554387394253	0.993554387394253
seq663	418	0.0155124510224923	0.934659111950524	0.993554387394253	0.993554387394253
seq664	417	0.290775549769476	0.367685072029034	0.993554387394253	0.993554387394253
seq665	417	0.14727867600495	0.557463985483095	0.993554387394253	0.993554387394253
seq666	417	0.0907575380622881	0.674421360589564	0.993554387394253	0.993554387394253
seq667	417	0.113028343519372	0.622790060363663	0.993554387394253	0.993554387394253
seq668	416	0.0548957390173679	0.775861941265785	0.993554387394253	0.993554387394253
seq669	415	0.101367287039726	0.649327852460838	0.993554387394253	0.993554387394253
seq670	415	0.63996476331421	0.118920119986668	0.993554387394253	0.993554387394253
seq671	414	0.194444214137286	0.483553679220827	0.993554387394253	0.993554387394253
seq672	414	0.155400698470478	0.543628485723809	0.993554387394253	0.993554387394253
seq673	413	0.0494122763707412	0.79497092915602	0.993554387394253	0.993554387394253
seq674	412	0.284859514470791	0.37409176758138	0.993554387394253	0.993554387394253
seq675	412	0.643302005328867	0.11716475947117	0.993554387394253	0.993554387394253
seq676	411	0.153516891342265	0.546546679998519	0.993554387394253	0.993554387394253
seq677	411	0.0522484198030263	0.78485353479243	0.993554387394253	0.993554387394253
seq678	411	0.069648564687838	0.730081842758212	0.993554387394253	0.993554387394253
seq679	411	0.0232731949958459	0.898492760063697	0.993554387394253	0.993554387394253
seq680	411	0.0116096686853391	0.953931044698737	0.993554387394253	0.993554387394253
seq681	410	0.227394452115907	0.439306743695145	0.993554387394253	0.993554387394253
seq682	409	0.211172495966329	0.460141465763063	0.993554387394253	0.993554387394253
seq683	408	0.468835785146239	0.21947191052846	0.993554387394253	0.993554387394253
seq684	408	0.0192589786228136	0.91687590267748	0.993554387394253	0.993554387394253
seq685	408	0.0428724454651949	0.818353516275969	0.993554387394253	0.993554387394253
seq686	408	0.570472014570592	0.156597415102026	0.993554387394253	0.993554387394253
seq687	408	0.160762233205861	0.535177572862275	0.993554387394253	0.993554387394253
seq688	408	0.480665305337846	0.211287634707255	0.993554387394253	0.993554387394253
seq689	407	0.0329051961015153	0.856941821279117	0.993554387394253	0.993554387394253
seq690	407	0.203516355164993	0.470606969595971	0.993554387394253	0.993554387394253
seq691	407	0.0116179966882798	0.953886605192016	0.993554387394253	0.993554387394253
seq692	407	0.00624833048717394	0.979757804688368	0.995221446363634	0.995221446363634
seq693	406	0.00965745290022122	0.963330000370329	0.993554387394253	0.993554387394253
seq694	406	0.0534326023773882	0.780957671369848	0.993554387394253	0.993554387394253
seq695	406	0.0208190504305976	0.909676702588601	0.993554387394253	0.993554387394253
seq696	406	0.367239643795831	0.29649298226123	0.993554387394253	0.993554387394253
seq697	406	0.296824292790257	0.361730178128356	0.993554387394253	0.993554387394253
seq698	405	0.729718427529132	0.0767988741991631	0.993554387394253	0.993554387394253
seq699	405	0.141951523495808	0.566996259674851	0.993554387394253	0.993554387394253
seq700	405	0.428789400162937	0.247690997296597	0.993554387394253	0.993554387394253
seq701	403	0.22200971618499	0.445913417027738	0.993554387394253	0.993554387394253
seq702	403	0.0967136081969732	0.660208125023146	0.993554387394253	0.993554387394253
seq703	403	0.0140320254118837	0.941813872532682	0.993554387394253	0.993554387394253
seq704	403	0.103818384879929	0.643506277080324	0.993554387394253	0.993554387394253
seq705	402	0.0419345136766434	0.821856830722512	0.993554387394253	0.993554387394253
seq706	402	0.131245678870446	0.586149687071807	0.993554387394253	0.993554387394253
seq707	402	0.114023788094701	0.620605117949857	0.993554387394253	0.993554387394253
seq708	401	0.0527758909436347	0.783090767692479	0.993554387394253	0.993554387394253
seq709	401	0.0395034031759129	0.830663259637818	0.993554387394253	0.993554387394253
seq710	400	0.0747102535604787	0.715890826945154	0.993554387394253	0.993554387394253
seq711	399	0.0202594010849083	0.912150501796097	0.993554387394253	0.993554387394253
seq712	398	0.320133901455514	0.338925304595786	0.993554387394253	0.993554387394253
seq713	398	0.707772096122094	0.0867533237047735	0.993554387394253	0.993554387394253
seq714	398	0.297441394877537	0.36113765137207	0.993554387394253	0.993554387394253
seq715	398	0.271723073267151	0.387912454171759	0.993554387394253	0.993554387394253
seq716	398	0.144822250151125	0.561833870310706	0.993554387394253	0.993554387394253
seq717	398	0.103382743550402	0.64446913305929	0.993554387394253	0.993554387394253
seq718	398	0.0448998526046597	0.810783986964411	0.993554387394253	0.993554387394253
seq719	398	0.161236361144703	0.534503573676999	0.993554387394253	0.993554387394253
seq720	397	0.395364949989517	0.273369625597156	0.993554387394253	0.993554387394253
seq721	397	0.167228562759174	0.524712069029367	0.993554387394253	0.993554387394253
seq722	397	0.111571490320862	0.625952671925342	0.993554387394253	0.993554387394253
seq723	397	0.0727993381836491	0.720875458282413	0.993554387394253	0.993554387394253
seq724	397	0.728298694102104	0.0774062141243566	0.993554387394253	0.993554387394253
seq725	396	0.0919830558506565	0.671362441210236	0.993554387394253	0.993554387394253
seq726	396	0.00775332260913622	0.972521571677221	0.993554387394253	0.993554387394253
seq727	396	0.12609298009596	0.595830092952635	0.993554387394253	0.993554387394253
seq728	396	0.0121507425116122	0.951220234788727	0.993554387394253	0.993554387394253
seq729	396	0.652567060289643	0.112402325667518	0.993554387394253	0.993554387394253
seq730	395	0.15293067277828	0.547561382068659	0.993554387394253	0.993554387394253
seq731	395	0.131010289268331	0.586727400659186	0.993554387394253	0.993554387394253
seq732	395	0.0911198599599305	0.673525163870681	0.993554387394253	0.993554387394253
seq733	394	0.603021593966237	0.138058734214717	0.993554387394253	0.993554387394253
seq734	394	0.0173922138096614	0.925526793319261	0.993554387394253	0.993554387394253
seq735	394	0.252511867348709	0.409317483242603	0.993554387394253	0.993554387394253
seq736	393	0.0907221701800042	0.674517646187461	0.993554387394253	0.993554387394253
seq737	393	0.024467822378865	0.892841536125616	0.993554387394253	0.993554387394253
seq738	393	0.0310153714547981	0.864889086397808	0.993554387394253	0.993554387394253
seq739	393	0.690603239537116	0.0946043032255675	0.993554387394253	0.993554387394253
seq740	393	0.476297827203549	0.214353960671037	0.993554387394253	0.993554387394253
seq741	392	0.0653282511031468	0.743058178720883	0.993554387394253	0.993554387394253
seq742	392	0.136691123598527	0.575980446617043	0.993554387394253	0.993554387394253
seq743	392	0.480796036895777	0.211206162278265	0.993554387394253	0.993554387394253
seq744	390	0.0294047435731836	0.871503166314854	0.993554387394253	0.993554387394253
seq745	390	0.0514406026478195	0.78764581713143	0.993554387394253	0.993554387394253
seq746	390	0.0175867547319688	0.924600970262563	0.993554387394253	0.993554387394253
seq747	390	0.161736323927984	0.53363700329593	0.993554387394253	0.993554387394253
seq748	389	0.25429808159369	0.407191793504425	0.993554387394253	0.993554387394253
seq749	389	0.265127344414682	0.395030181831648	0.993554387394253	0.993554387394253
seq750	389	0.0113122080648527	0.955286449653742	0.993554387394253	0.993554387394253
seq751	389	0.392349585028087	0.275687886531126	0.993554387394253	0.993554387394253
seq752	388	0.268191538462718	0.391712031996445	0.993554387394253	0.993554387394253
seq753	387	0.100885155774726	0.650446246713328	0.993554387394253	0.993554387394253
seq754	386	0.0714829910090542	0.724600970262563	0.993554387394253	0.993554387394253
seq755	386	0.116642861823659	0.614879828167241	0.993554387394253	0.993554387394253
seq756	385	0.142317464652434	0.566359293411843	0.993554387394253	0.993554387394253
seq757	385	0.101028172763897	0.650172203088546	0.993554387394253	0.993554387394253
seq758	385	0.302137594350558	0.356397437321779	0.993554387394253	0.993554387394253
seq759	384	0.393262116757326	0.274954634670222	0.993554387394253	0.993554387394253
seq760	384	0.109130073718887	0.631685368292412	0.993554387394253	0.993554387394253
seq761	384	0.0245938041257713	0.892382327889494	0.993554387394253	0.993554387394253
seq762	383	0.180306445874716	0.50412917083287	0.993554387394253	0.993554387394253
seq763	383	0.0727998897179184	0.720875458282413	0.993554387394253	0.993554387394253
seq764	383	0.923318100887508	0.0100137021812391	0.684465996152931	0.684465996152931
seq765	383	0.418667070301637	0.255393845128319	0.993554387394253	0.993554387394253
seq766	383	0.238501855572515	0.42541199126023	0.993554387394253	0.993554387394253
seq767	383	0.0667727751171749	0.738703107062178	0.993554387394253	0.993554387394253
seq768	382	0.110986900576171	0.627359922971522	0.993554387394253	0.993554387394253
seq769	382	0.079515304210037	0.703514424323223	0.993554387394253	0.993554387394253
seq770	382	0.0546285841892077	0.776654445802318	0.993554387394253	0.993554387394253
seq771	382	0.137975321054609	0.573721438358701	0.993554387394253	0.993554387394253
seq772	382	0.0990712913144308	0.654623560345147	0.993554387394253	0.993554387394253
seq773	382	0.0109168368998263	0.957256601118394	0.993554387394253	0.993554387394253
seq774	381	0.46670723623033	0.220782875976743	0.993554387394253	0.993554387394253
seq775	381	0.159159235560492	0.537932822279006	0.993554387394253	0.993554387394253
seq776	380	0.844139335245852	0.0330778061696849	0.993554387394253	0.993554387394253
seq777	380	0.195472400923534	0.482094582083472	0.993554387394253	0.993554387394253
seq778	380	0.0716403965034143	0.724126948857534	0.993554387394253	0.993554387394253
seq779	380	0.0177485060184083	0.923852905232752	0.993554387394253	0.993554387394253
seq780	380	0.140573581886759	0.569218235010925	0.993554387394253	0.993554387394253
seq781	380	0.446466177467973	0.23443321112469	0.993554387394253	0.993554387394253
seq782	379	0.42972021253007	0.24709847054031	0.993554387394253	0.993554387394253
seq783	379	0.00824753014517663	0.970255156834426	0.993554387394253	0.993554387394253
seq784	379	0.239644730832699	0.424234344332111	0.993554387394253	0.993554387394253
seq785	379	0.0889688187370494	0.678843091508351	0.993554387394253	0.993554387394253
seq786	379	0.043723444746383	0.815131652038662	0.993554387394253	0.993554387394253
seq787	379	0.0215497967932286	0.906077102544162	0.993554387394253	0.993554387394253
seq788	378	0.0903856928225825	0.675176832203829	0.993554387394253	0.993554387394253
seq789	378	0.300679583787848	0.35803429248602	0.993554387394253	0.993554387394253
seq790	378	0.429554224891281	0.247231789060475	0.993554387394253	0.993554387394253
seq791	377	0.370892217861027	0.293337777284006	0.993554387394253	0.993554387394253
seq792	377	0.0564003078694705	0.770810650668444	0.993554387394253	0.993554387394253
seq793	377	0.325390159781303	0.334014739103063	0.993554387394253	0.993554387394253
seq794	376	0.591567875023761	0.144154353220013	0.993554387394253	0.993554387394253
seq795	376	0.225216908053475	0.441958300929526	0.993554387394253	0.993554387394253
seq796	376	0.124996115747984	0.597903936599637	0.993554387394253	0.993554387394253
seq797	376	0.101262055995593	0.649631522423434	0.993554387394253	0.993554387394253
seq798	375	0.0203052470786147	0.911965337184757	0.993554387394253	0.993554387394253
seq799	375	0.0727795083657515	0.720905084620227	0.993554387394253	0.993554387394253
seq800	375	0.0790784836200721	0.704462467133282	0.993554387394253	0.993554387394253
seq801	375	0.225707360795189	0.441336147835426	0.993554387394253	0.993554387394253
seq802	375	0.0874316284909691	0.682635262748583	0.993554387394253	0.993554387394253
seq803	375	0.156292863139693	0.542236047846536	0.993554387394253	0.993554387394253
seq804	374	0.0210339889853134	0.90853608858275	0.993554387394253	0.993554387394253
seq805	374	0.0309822749716867	0.865089064178054	0.993554387394253	0.993554387394253
seq806	374	0.0414235258971045	0.823678850498093	0.993554387394253	0.993554387394253
seq807	374	0.215885204851149	0.453756989964078	0.993554387394253	0.993554387394253
seq808	374	0.405106021385647	0.265429767062919	0.993554387394253	0.993554387394253
seq809	373	0.109558746213078	0.630737325482354	0.993554387394253	0.993554387394253
seq810	373	0.100851833219615	0.650542532311225	0.993554387394253	0.993554387394253
seq811	373	0.0169068991006902	0.927882087175499	0.993554387394253	0.993554387394253
seq812	373	0.0587029771898229	0.763611450579565	0.993554387394253	0.993554387394253
seq813	373	0.035981350672573	0.84478020960634	0.993554387394253	0.993554387394253
seq814	372	0.111186187166584	0.6269007147354	0.993554387394253	0.993554387394253
seq815	372	0.0385044616113631	0.83474428767174	0.993554387394253	0.993554387394253
seq816	372	0.0576799819284947	0.766825908232419	0.993554387394253	0.993554387394253
seq817	372	0.635518852074336	0.120986557049217	0.993554387394253	0.993554387394253
seq818	372	0.271995525636614	0.387697663222605	0.993554387394253	0.993554387394253
seq819	371	0.220237152315658	0.448053919934822	0.993554387394253	0.993554387394253
seq820	371	0.0470120031211299	0.803340369588564	0.993554387394253	0.993554387394253
seq821	371	0.0110578947976686	0.956575195348665	0.993554387394253	0.993554387394253
seq822	371	0.469238498526194	0.219227493241492	0.993554387394253	0.993554387394253
seq823	371	0.0079376419074512	0.971603155204977	0.993554387394253	0.993554387394253
seq824	370	0.314158792583995	0.344702440469577	0.993554387394253	0.993554387394253
seq825	370	0.0971542893832643	0.65903788467948	0.993554387394253	0.993554387394253
seq826	370	0.119061310460277	0.60964337295856	0.993554387394253	0.993554387394253
seq827	369	0.667583526339362	0.105210532163093	0.993554387394253	0.993554387394253
seq828	369	0.0271421344061116	0.88101322075325	0.993554387394253	0.993554387394253
seq829	369	0.203531532581245	0.470577343258156	0.993554387394253	0.993554387394253
seq830	369	0.278364071754522	0.380965077954301	0.993554387394253	0.993554387394253
seq831	369	0.100578790310053	0.651283190756583	0.993554387394253	0.993554387394253
seq832	369	0.0434898259670166	0.815813057808392	0.993554387394253	0.993554387394253
seq833	369	0.177279467042149	0.508965670481058	0.993554387394253	0.993554387394253
seq834	369	0.0831751558748722	0.693663666999963	0.993554387394253	0.993554387394253
seq835	369	0.56062422775724	0.162041254675406	0.993554387394253	0.993554387394253
seq836	368	0.0891738045451454	0.678139465985261	0.993554387394253	0.993554387394253
seq837	368	0.0825884909104562	0.695137577306225	0.993554387394253	0.993554387394253
seq838	368	0.853538895120423	0.02981890901011	0.993554387394253	0.993554387394253
seq839	367	0.252449419171191	0.409361922749324	0.993554387394253	0.993554387394253
seq840	367	0.172510931123735	0.516209310076658	0.993554387394253	0.993554387394253
seq841	367	0.419893336466495	0.254416175980447	0.993554387394253	0.993554387394253
seq842	367	0.109793080848501	0.630255897492871	0.993554387394253	0.993554387394253
seq843	367	0.0199134393244191	0.913683664777988	0.993554387394253	0.993554387394253
seq844	366	0.00254284035236257	0.995356071547606	0.998006746893588	0.998006746893588
seq845	366	0.0465078619866994	0.805177202533052	0.993554387394253	0.993554387394253
seq846	366	0.0283826439187739	0.875710106284487	0.993554387394253	0.993554387394253
seq847	366	0.12284238993233	0.601962744880199	0.993554387394253	0.993554387394253
seq848	365	0.316983081096251	0.341732400103692	0.993554387394253	0.993554387394253
seq849	365	0.0306698087557421	0.866229678183906	0.993554387394253	0.993554387394253
seq850	365	0.214453886152995	0.455853053364441	0.993554387394253	0.993554387394253
seq851	365	0.158839453849893	0.53835499759286	0.993554387394253	0.993554387394253
seq852	365	0.226729107591912	0.440077028478317	0.993554387394253	0.993554387394253
seq853	364	0.596608024507974	0.141591674999074	0.993554387394253	0.993554387394253
seq854	364	0.997577809560078	2.22197533607377e-05	0.00860645113505907	0.00860645113505907
seq855	364	0.0530415547791423	0.782216790726956	0.993554387394253	0.993554387394253
seq856	364	0.894093292225441	0.0173758471280969	0.877858015776026	0.877858015776026
seq857	363	0.0788197526763597	0.705129059734104	0.993554387394253	0.993554387394253
seq858	363	0.592912040599002	0.143428507943562	0.993554387394253	0.993554387394253
seq859	363	0.394328807067517	0.274110284042514	0.993554387394253	0.993554387394253
seq860	363	0.134972342707461	0.579031959411917	0.993554387394253	0.993554387394253
seq861	362	0.502489223600243	0.197229937414361	0.993554387394253	0.993554387394253
seq862	362	0.0579445807615344	0.76595933785135	0.993554387394253	0.993554387394253
seq863	362	0.175194664282307	0.512246787393993	0.993554387394253	0.993554387394253
seq864	361	0.121190093359289	0.605451246157834	0.993554387394253	0.993554387394253
seq865	361	0.792740894174257	0.0514683553679221	0.993554387394253	0.993554387394253
seq866	361	0.201264805616787	0.47379180091101	0.993554387394253	0.993554387394253
seq867	360	0.0866654969936861	0.684812798577936	0.993554387394253	0.993554387394253
seq868	360	0.497054741045806	0.200651779431915	0.993554387394253	0.993554387394253
seq869	360	0.0872042392727462	0.683257415842684	0.993554387394253	0.993554387394253
seq870	360	0.252184700324969	0.409717438803096	0.993554387394253	0.993554387394253
seq871	359	0.224087429410788	0.443439617820242	0.993554387394253	0.993554387394253
seq872	359	0.577842241258966	0.152346035625671	0.993554387394253	0.993554387394253
seq873	358	0.28306014844501	0.376135984890568	0.993554387394253	0.993554387394253
seq874	358	0.0503394464030369	0.79176387808762	0.993554387394253	0.993554387394253
seq875	358	0.0747877454084551	0.715587156982557	0.993554387394253	0.993554387394253
seq876	357	0.00606542392559998	0.980661407991705	0.995221446363634	0.995221446363634
seq877	357	0.0287117087520874	0.874362107913936	0.993554387394253	0.993554387394253
seq878	357	0.394638119220097	0.273865866755546	0.993554387394253	0.993554387394253
seq879	357	0.0791924504967784	0.704240269599674	0.993554387394253	0.993554387394253
seq880	357	0.397541601227882	0.271540199237122	0.993554387394253	0.993554387394253
seq881	357	0.0852758486221233	0.688382772284561	0.993554387394253	0.993554387394253
seq882	356	0.511012304843793	0.191978669036774	0.993554387394253	0.993554387394253
seq883	356	0.154194919859267	0.545502351590564	0.993554387394253	0.993554387394253
seq884	355	0.0829649524122593	0.694182127911714	0.993554387394253	0.993554387394253
seq885	355	0.0379612146003983	0.836921823501092	0.993554387394253	0.993554387394253
seq886	355	0.411527784264557	0.260600673999185	0.993554387394253	0.993554387394253
seq887	354	0.106517770942073	0.637358811983854	0.993554387394253	0.993554387394253
seq888	354	0.0631637976821555	0.749613005962301	0.993554387394253	0.993554387394253
seq889	354	0.00507810037712436	0.985231270599563	0.995511944727558	0.995511944727558
seq890	354	0.0270423662343681	0.881516868496093	0.993554387394253	0.993554387394253
seq891	354	0.0533974283795603	0.781076176721105	0.993554387394253	0.993554387394253
seq892	354	0.316865158737727	0.341887938377217	0.993554387394253	0.993554387394253
seq893	354	0.106237423570247	0.637840239973336	0.993554387394253	0.993554387394253
seq894	353	0.186163533045427	0.495263489241936	0.993554387394253	0.993554387394253
seq895	353	0.0030577621981322	0.99368959004555	0.998006746893588	0.998006746893588
seq896	353	0.00340826689455569	0.992311965337185	0.998006746893588	0.998006746893588
seq897	353	0.119884435394504	0.607939858534237	0.993554387394253	0.993554387394253
seq898	353	0.0192334852692123	0.91695737510647	0.993554387394253	0.993554387394253
seq899	353	0.311948918769278	0.346731844609858	0.993554387394253	0.993554387394253
seq900	352	0.190144974078441	0.489634485057216	0.993554387394253	0.993554387394253
seq901	352	0.246626622452116	0.416220419953339	0.993554387394253	0.993554387394253
seq902	351	0.283889678646747	0.375121282820427	0.993554387394253	0.993554387394253
seq903	351	0.121881483468371	0.603977335851572	0.993554387394253	0.993554387394253
seq904	351	0.64109900697107	0.118223901048032	0.993554387394253	0.993554387394253
seq905	351	0.0417968638613218	0.822316038958634	0.993554387394253	0.993554387394253
seq906	351	0.202291029480417	0.472369736695923	0.993554387394253	0.993554387394253
seq907	351	0.0102004659011413	0.960893234085102	0.993554387394253	0.993554387394253
seq908	351	0.279387012475831	0.379861496870718	0.993554387394253	0.993554387394253
seq909	351	0.00461798450677001	0.987290301077658	0.996555321013715	0.996555321013715
seq910	351	0.385074168658137	0.281516868496093	0.993554387394253	0.993554387394253
seq911	351	0.191007423943751	0.48825686034885	0.993554387394253	0.993554387394253
seq912	350	0.734656612119268	0.074828722734511	0.993554387394253	0.993554387394253
seq913	350	0.116131936154469	0.61587231048402	0.993554387394253	0.993554387394253
seq914	350	0.0628114299051835	0.750798059474873	0.993554387394253	0.993554387394253
seq915	350	0.0143765873765694	0.940117764692812	0.993554387394253	0.993554387394253
seq916	350	0.345097336587609	0.315535310891382	0.993554387394253	0.993554387394253
seq917	350	0.0661224843643724	0.740710291449098	0.993554387394253	0.993554387394253
seq918	349	0.305052972314406	0.353575528644965	0.993554387394253	0.993554387394253
seq919	349	0.168659448789008	0.5222975224975	0.993554387394253	0.993554387394253
seq920	349	0.0752031612879986	0.714461356145613	0.993554387394253	0.993554387394253
seq921	348	0.799637119534055	0.0488316113024479	0.993554387394253	0.993554387394253
seq922	348	0.174059052816157	0.513987334740584	0.993554387394253	0.993554387394253
seq923	348	0.428387780629634	0.247950227752472	0.993554387394253	0.993554387394253
seq924	348	0.108275743589409	0.633462948561271	0.993554387394253	0.993554387394253
seq925	348	0.0578593835270182	0.766240788060586	0.993554387394253	0.993554387394253
seq926	348	0.499129515757699	0.199266748139096	0.993554387394253	0.993554387394253
seq927	347	0.253327327361748	0.408332407510277	0.993554387394253	0.993554387394253
seq928	347	0.190834856390811	0.488508684220272	0.993554387394253	0.993554387394253
seq929	347	0.00980783466672512	0.962670814353961	0.993554387394253	0.993554387394253
seq930	347	0.21676302773958	0.452549716698145	0.993554387394253	0.993554387394253
seq931	347	0.333951713602327	0.325497166981446	0.993554387394253	0.993554387394253
seq932	346	0.419550380581594	0.254705032774136	0.993554387394253	0.993554387394253
seq933	346	0.577799990988549	0.152368255379032	0.993554387394253	0.993554387394253
seq934	346	0.0593323706943378	0.761441321334666	0.993554387394253	0.993554387394253
seq935	346	0.162700089655735	0.532140873236307	0.993554387394253	0.993554387394253
seq936	346	0.208652697280951	0.463585527533978	0.993554387394253	0.993554387394253
seq937	346	0.888711708943398	0.0190793615524201	0.92375908849634	0.92375908849634
seq938	345	0.0121665635076347	0.951153575528645	0.993554387394253	0.993554387394253
seq939	344	0.497643410834514	0.200251823871422	0.993554387394253	0.993554387394253
seq940	344	0.209929121190378	0.461785727511758	0.993554387394253	0.993554387394253
seq941	344	0.0224107494978069	0.902381216901826	0.993554387394253	0.993554387394253
seq942	343	0.0150913879800521	0.936710735844165	0.993554387394253	0.993554387394253
seq943	343	0.0248795562154977	0.891212087545828	0.993554387394253	0.993554387394253
seq944	343	0.152268401170778	0.548731622412325	0.993554387394253	0.993554387394253
seq945	343	0.00960223679898872	0.963529978150576	0.993554387394253	0.993554387394253
seq946	343	0.0413856793695201	0.823804762433804	0.993554387394253	0.993554387394253
seq947	342	0.47032319580665	0.218457208458319	0.993554387394253	0.993554387394253
seq948	342	0.0120630456691673	0.951590564011406	0.993554387394253	0.993554387394253
seq949	342	0.158431476348036	0.538984557271414	0.993554387394253	0.993554387394253
seq950	342	0.0236288899665723	0.896878124652816	0.993554387394253	0.993554387394253
seq951	341	0.0102714801811032	0.960567344369144	0.993554387394253	0.993554387394253
seq952	341	0.0405011520323938	0.827248824204718	0.993554387394253	0.993554387394253
seq953	341	0.446421709103606	0.234470244046958	0.993554387394253	0.993554387394253
seq954	341	0.0317532850788653	0.861719068251676	0.993554387394253	0.993554387394253
seq955	341	0.504726708124177	0.195741213939192	0.993554387394253	0.993554387394253
seq956	341	0.207366417092706	0.465274228789394	0.993554387394253	0.993554387394253
seq957	341	0.0664211722634464	0.73986594082139	0.993554387394253	0.993554387394253
seq958	340	0.140491075940012	0.569329333777728	0.993554387394253	0.993554387394253
seq959	339	0.316546765068274	0.342184201755361	0.993554387394253	0.993554387394253
seq960	339	0.413015066444671	0.259408213902159	0.993554387394253	0.993554387394253
seq961	338	0.834471673333009	0.0362330111469096	0.993554387394253	0.993554387394253
seq962	338	0.0149298621957005	0.937584712809688	0.993554387394253	0.993554387394253
seq963	338	0.618209763947492	0.130067029589305	0.993554387394253	0.993554387394253
seq964	338	0.0111641388589975	0.956034514683554	0.993554387394253	0.993554387394253
seq965	337	0.0593705583997315	0.761374662074584	0.993554387394253	0.993554387394253
seq966	337	0.0308498720324017	0.865489019738548	0.993554387394253	0.993554387394253
seq967	337	0.0503372760196577	0.791771284672073	0.993554387394253	0.993554387394253
seq968	337	0.228100662882678	0.43836610746954	0.993554387394253	0.993554387394253
seq969	336	0.0737379578393557	0.718253527385846	0.993554387394253	0.993554387394253
seq970	336	0.115373808683408	0.617509165648261	0.993554387394253	0.993554387394253
seq971	336	0.000969142139327774	0.999251934970188	0.999725956375218	0.999725956375218
seq972	336	0.297642410229634	0.360937673591823	0.993554387394253	0.993554387394253
seq973	335	0.0258411482313149	0.886812576380402	0.993554387394253	0.993554387394253
seq974	335	0.155768623302127	0.543013739214161	0.993554387394253	0.993554387394253
seq975	334	0.209079754341171	0.462985594193238	0.993554387394253	0.993554387394253
seq976	333	0.018673998114984	0.919527459911862	0.993554387394253	0.993554387394253
seq977	333	0.00744253627008902	0.974025108321298	0.993554387394253	0.993554387394253
seq978	332	0.380010487140094	0.285612709698922	0.993554387394253	0.993554387394253
seq979	332	0.445220454514699	0.235388660519202	0.993554387394253	0.993554387394253
seq980	332	0.32963425503176	0.329555975262008	0.993554387394253	0.993554387394253
seq981	332	0.154517669870006	0.544902418249824	0.993554387394253	0.993554387394253
seq982	332	0.635563017505152	0.120964337295856	0.993554387394253	0.993554387394253
seq983	332	0.00732058608601857	0.974580602155316	0.993554387394253	0.993554387394253
seq984	331	0.00290282277651823	0.994111765359404	0.998006746893588	0.998006746893588
seq985	331	0.0677415184819255	0.735681220605118	0.993554387394253	0.993554387394253
seq986	331	0.0245933098558081	0.892382327889494	0.993554387394253	0.993554387394253
seq987	331	0.370829924346606	0.293426656297448	0.993554387394253	0.993554387394253
seq988	331	0.0377778162513676	0.837655075361997	0.993554387394253	0.993554387394253
seq989	331	0.223992942793428	0.443558123171499	0.993554387394253	0.993554387394253
seq990	331	0.510771741634905	0.192126800725845	0.993554387394253	0.993554387394253
seq991	331	0.66446889995161	0.106706662222716	0.993554387394253	0.993554387394253
seq992	331	0.133451334884235	0.581890901010999	0.993554387394253	0.993554387394253
seq993	331	0.334587708208179	0.324867607302892	0.993554387394253	0.993554387394253
seq994	331	0.076151326574214	0.711957930600304	0.993554387394253	0.993554387394253
seq995	330	0.00252147099998684	0.995430137392142	0.998006746893588	0.998006746893588
seq996	330	0.883731502227967	0.0205754916120431	0.956348850127763	0.956348850127763
seq997	330	0.318492916694164	0.340406621486502	0.993554387394253	0.993554387394253
seq998	330	0.000612253085214718	0.999725956375218	0.999725956375218	0.999725956375218
seq999	330	0.294070320796844	0.364522460467355	0.993554387394253	0.993554387394253
seq1000	330	0.158598974654658	0.5387475465689	0.993554387394253	0.993554387394253
seq1001	330	0.218559836644765	0.450149983335185	0.993554387394253	0.993554387394253
seq1002	329	0.00539233797971803	0.983905491982372	0.995511944727558	0.995511944727558
seq1003	329	0.166688026710976	0.52560826574825	0.993554387394253	0.993554387394253
seq1004	329	0.0737804248415987	0.718127615450135	0.993554387394253	0.993554387394253
seq1005	329	0.998301476431887	1.48131689071585e-05	0.00860645113505907	0.00860645113505907
seq1006	328	0.173946475657813	0.514150279598563	0.993554387394253	0.993554387394253
seq1007	328	0.151866817626937	0.549420434766507	0.993554387394253	0.993554387394253
seq1008	328	0.016542508418428	0.929533755508647	0.993554387394253	0.993554387394253
seq1009	328	0.471826561808053	0.217479539310447	0.993554387394253	0.993554387394253
seq1010	328	0.00883823815329536	0.96726289671518	0.993554387394253	0.993554387394253
seq1011	328	0.0390903454025503	0.832418620153316	0.993554387394253	0.993554387394253
seq1012	328	0.0635840618599259	0.748339073436285	0.993554387394253	0.993554387394253
seq1013	327	0.12708668084395	0.593956227085879	0.993554387394253	0.993554387394253
seq1014	327	0.0955506290899031	0.66265970447728	0.993554387394253	0.993554387394253
seq1015	327	0.0768722323561256	0.710209976669259	0.993554387394253	0.993554387394253
seq1016	326	0.0532392533186081	0.781572417879495	0.993554387394253	0.993554387394253
seq1017	326	0.491233246683352	0.204399511165426	0.993554387394253	0.993554387394253
seq1018	326	0.0595398212902019	0.760730289227123	0.993554387394253	0.993554387394253
seq1019	326	0.686476268130369	0.0964633559234159	0.993554387394253	0.993554387394253
seq1020	326	0.0303955691686612	0.8674591712032	0.993554387394253	0.993554387394253
seq1021	325	0.489628926680914	0.205414213235566	0.993554387394253	0.993554387394253
seq1022	325	0.986256281138864	0.000399955560493279	0.0516387068103545	0.0516387068103545
seq1023	325	0.389975551279514	0.277480279968892	0.993554387394253	0.993554387394253
seq1024	324	0.555084200365011	0.165240899159353	0.993554387394253	0.993554387394253
seq1025	324	0.231985826530243	0.433588860496982	0.993554387394253	0.993554387394253
seq1026	324	0.593258799259406	0.143287782838944	0.993554387394253	0.993554387394253
seq1027	324	0.218615240021531	0.450053697737288	0.993554387394253	0.993554387394253
seq1028	323	0.0288427051370134	0.873762174573196	0.993554387394253	0.993554387394253
seq1029	323	0.433859005196303	0.243913639225271	0.993554387394253	0.993554387394253
seq1030	323	0.217279361319642	0.451831278006147	0.993554387394253	0.993554387394253
seq1031	323	0.0747754634367365	0.715639003073733	0.993554387394253	0.993554387394253
seq1032	323	0.0276777579106034	0.878694959819279	0.993554387394253	0.993554387394253
seq1033	323	0.0631177382768097	0.749746324482465	0.993554387394253	0.993554387394253
seq1034	322	0.960824485043905	0.00298485353479243	0.231226653828587	0.231226653828587
seq1035	322	0.217510087640419	0.451564640965819	0.993554387394253	0.993554387394253
seq1036	322	0.280178621092093	0.379106025256453	0.993554387394253	0.993554387394253
seq1037	322	0.0392358594928847	0.831811280228123	0.993554387394253	0.993554387394253
seq1038	321	0.159478338761893	0.537421767951709	0.993554387394253	0.993554387394253
seq1039	321	0.332291317301126	0.327045143132245	0.993554387394253	0.993554387394253
seq1040	321	0.315723175552779	0.343102618227604	0.993554387394253	0.993554387394253
seq1041	321	0.0418343584857495	0.822190127022923	0.993554387394253	0.993554387394253
seq1042	320	0.507140149239296	0.194259897048476	0.993554387394253	0.993554387394253
seq1043	320	0.20815727355322	0.464296559641521	0.993554387394253	0.993554387394253
seq1044	319	0.287308759427532	0.371329111580195	0.993554387394253	0.993554387394253
seq1045	319	0.18741263277703	0.493500722141984	0.993554387394253	0.993554387394253
seq1046	319	0.0961030810193532	0.661407991704625	0.993554387394253	0.993554387394253
seq1047	319	0.182258695274617	0.501025811946821	0.993554387394253	0.993554387394253
seq1048	319	0.212841574049007	0.458104655038329	0.993554387394253	0.993554387394253
seq1049	319	0.254689083963989	0.406762211606118	0.993554387394253	0.993554387394253
seq1050	319	0.00733351433595193	0.974536162648595	0.993554387394253	0.993554387394253
seq1051	319	0.0782114458811104	0.706662222715995	0.993554387394253	0.993554387394253
seq1052	319	0.950632335240832	0.00474762063474429	0.344795948598304	0.344795948598304
seq1053	319	0.359754922944081	0.302929304151391	0.993554387394253	0.993554387394253
seq1054	319	0.041226443775596	0.824367662852276	0.993554387394253	0.993554387394253
seq1055	318	0.0354418391302722	0.846854053253342	0.993554387394253	0.993554387394253
seq1056	318	0.0154415912902123	0.934977595082028	0.993554387394253	0.993554387394253
seq1057	318	0.618822761562091	0.129763359626708	0.993554387394253	0.993554387394253
seq1058	317	0.141554423715483	0.567581379846684	0.993554387394253	0.993554387394253
seq1059	317	0.138489276186664	0.572817835055364	0.993554387394253	0.993554387394253
seq1060	317	0.0132496642001963	0.945731955708625	0.993554387394253	0.993554387394253
seq1061	317	0.0630656670142432	0.749916675924897	0.993554387394253	0.993554387394253
seq1062	317	0.265549822343791	0.394593193348887	0.993554387394253	0.993554387394253
seq1063	317	0.0324927350184702	0.858719401547976	0.993554387394253	0.993554387394253
seq1064	317	0.721414684091489	0.0806947376217457	0.993554387394253	0.993554387394253
seq1065	316	0.0240729567076108	0.894745028330186	0.993554387394253	0.993554387394253
seq1066	316	0.846822052670794	0.0321445765285339	0.993554387394253	0.993554387394253
seq1067	316	0.913518302431303	0.0124134355441988	0.759179584334684	0.759179584334684
seq1068	316	0.287085949281074	0.371529089360441	0.993554387394253	0.993554387394253
seq1069	315	0.219002035279361	0.449542643409992	0.993554387394253	0.993554387394253
seq1070	315	0.0418129350193457	0.822256786283006	0.993554387394253	0.993554387394253
seq1071	315	0.415988116631973	0.257245491241714	0.993554387394253	0.993554387394253
seq1072	315	0.0646301582103748	0.745087582861164	0.993554387394253	0.993554387394253
seq1073	315	0.488025648498238	0.206384475798985	0.993554387394253	0.993554387394253
seq1074	314	0.0173496131209102	0.925800836944043	0.993554387394253	0.993554387394253
seq1075	314	0.125149444810107	0.597629892974855	0.993554387394253	0.993554387394253
seq1076	314	0.498438050694171	0.19968892345295	0.993554387394253	0.993554387394253
seq1077	314	0.318681610987063	0.340265896381883	0.993554387394253	0.993554387394253
seq1078	314	0.42795438209733	0.248305743806244	0.993554387394253	0.993554387394253
seq1079	314	0.498641455192939	0.199563011517239	0.993554387394253	0.993554387394253
seq1080	314	0.427436898434628	0.248750138873459	0.993554387394253	0.993554387394253
seq1081	313	0.0967992119109063	0.659971114320631	0.993554387394253	0.993554387394253
seq1082	313	0.222004501223162	0.445913417027738	0.993554387394253	0.993554387394253
seq1083	313	0.0790857458096102	0.704432840795467	0.993554387394253	0.993554387394253
seq1084	313	0.26058828490843	0.400007406584454	0.993554387394253	0.993554387394253
seq1085	313	0.00117118587930466	0.998896418916417	0.999725956375218	0.999725956375218
seq1086	313	0.0167787537402524	0.92852646002296	0.993554387394253	0.993554387394253
seq1087	313	0.348122569691677	0.313142984112876	0.993554387394253	0.993554387394253
seq1088	312	0.0569238539204603	0.769158982335296	0.993554387394253	0.993554387394253
seq1089	312	0.422979516815671	0.252134947968744	0.993554387394253	0.993554387394253
seq1090	312	0.0266513210084494	0.883198163167055	0.993554387394253	0.993554387394253
seq1091	312	0.126037695639801	0.595926378550531	0.993554387394253	0.993554387394253
seq1092	311	0.673819323030975	0.102344183979558	0.993554387394253	0.993554387394253
seq1093	311	0.0147717525978174	0.938325371255046	0.993554387394253	0.993554387394253
seq1094	310	0.0710396722058303	0.725941562048661	0.993554387394253	0.993554387394253
seq1095	310	0.377051254774946	0.288116135244232	0.993554387394253	0.993554387394253
seq1096	310	0.10108510725789	0.650083324075103	0.993554387394253	0.993554387394253
seq1097	310	0.028500830679281	0.875258304632819	0.993554387394253	0.993554387394253
seq1098	309	0.102670458700189	0.646254119912602	0.993554387394253	0.993554387394253
seq1099	309	0.0839358811988894	0.691797207717661	0.993554387394253	0.993554387394253
seq1100	308	0.131273239571831	0.586090434396178	0.993554387394253	0.993554387394253
seq1101	308	0.0817683468001949	0.697359552642299	0.993554387394253	0.993554387394253
seq1102	308	0.071381370045315	0.724926859978521	0.993554387394253	0.993554387394253
seq1103	308	0.034750765224416	0.849550049994445	0.993554387394253	0.993554387394253
seq1104	308	0.330900074254149	0.32842276784061	0.993554387394253	0.993554387394253
seq1105	308	0.110232699919515	0.629330074436174	0.993554387394253	0.993554387394253
seq1106	308	0.345861839411584	0.315002036810725	0.993554387394253	0.993554387394253
seq1107	308	0.151111182495424	0.550946191163945	0.993554387394253	0.993554387394253
seq1108	308	0.00656075472981389	0.97831352071992	0.995221446363634	0.995221446363634
seq1109	307	0.168804179261074	0.522060511794986	0.993554387394253	0.993554387394253
seq1110	307	0.0147783195104466	0.938303151501685	0.993554387394253	0.993554387394253
seq1111	307	0.02462058033273	0.892263822538236	0.993554387394253	0.993554387394253
seq1112	307	0.971292862583061	0.00166648150205533	0.193645150538829	0.193645150538829
seq1113	307	0.101072910732952	0.650112950412917	0.993554387394253	0.993554387394253
seq1114	307	0.238323733418753	0.42559715587157	0.993554387394253	0.993554387394253
seq1115	306	0.780526610981127	0.0559197126245232	0.993554387394253	0.993554387394253
seq1116	306	0.0205015477729668	0.911024700959153	0.993554387394253	0.993554387394253
seq1117	306	0.53480008446203	0.177328444987594	0.993554387394253	0.993554387394253
seq1118	306	0.34624037880844	0.314653927341407	0.993554387394253	0.993554387394253
seq1119	306	0.294799534724252	0.363715142761915	0.993554387394253	0.993554387394253
seq1120	306	0.218046793230013	0.450883235196089	0.993554387394253	0.993554387394253
seq1121	306	0.0757503860033253	0.713039291930526	0.993554387394253	0.993554387394253
seq1122	306	0.799380343511287	0.0489130837314372	0.993554387394253	0.993554387394253
seq1123	305	0.916941885614652	0.0115913046698515	0.748283112575969	0.748283112575969
seq1124	305	0.419707147569651	0.254593934007333	0.993554387394253	0.993554387394253
seq1125	305	0.986799199925086	0.000362922638225382	0.0516387068103545	0.0516387068103545
seq1126	305	0.0098476952186185	0.962522682664889	0.993554387394253	0.993554387394253
seq1127	305	0.527329024747754	0.181927933933267	0.993554387394253	0.993554387394253
seq1128	305	0.54965678619883	0.168247972447506	0.993554387394253	0.993554387394253
seq1129	305	0.0601198809182002	0.75892308262045	0.993554387394253	0.993554387394253
seq1130	305	0.0400156983268716	0.828944932044588	0.993554387394253	0.993554387394253
seq1131	305	0.014812130992543	0.938140206643706	0.993554387394253	0.993554387394253
seq1132	304	0.0307228210970875	0.866022293819205	0.993554387394253	0.993554387394253
seq1133	304	0.535049199519869	0.177187719882976	0.993554387394253	0.993554387394253
seq1134	303	0.395796452083036	0.272999296374477	0.993554387394253	0.993554387394253
seq1135	303	0.0595512340512935	0.760693256304855	0.993554387394253	0.993554387394253
seq1136	303	0.00614343467458263	0.980328111691294	0.995221446363634	0.995221446363634
seq1137	303	0.0761028879010483	0.712120875458282	0.993554387394253	0.993554387394253
seq1138	302	0.335455059121	0.324030663259638	0.993554387394253	0.993554387394253
seq1139	302	0.0253188026878332	0.889286375587898	0.993554387394253	0.993554387394253
seq1140	302	0.0441729515124655	0.813561456134504	0.993554387394253	0.993554387394253
seq1141	301	0.0232070428204413	0.898729770766211	0.993554387394253	0.993554387394253
seq1142	301	0.015845622839878	0.933014850201829	0.993554387394253	0.993554387394253
seq1143	301	0.440493319444698	0.23904751323927	0.993554387394253	0.993554387394253
seq1144	301	0.00270543756206019	0.99486723697367	0.998006746893588	0.998006746893588
seq1145	301	0.038141426150211	0.836181165055735	0.993554387394253	0.993554387394253
seq1146	301	0.282407087500759	0.376854423582565	0.993554387394253	0.993554387394253
seq1147	301	0.218959234237848	0.449587082916713	0.993554387394253	0.993554387394253
seq1148	301	0.300246837347576	0.358552753397771	0.993554387394253	0.993554387394253
seq1149	301	0.0860889825237822	0.68633114839092	0.993554387394253	0.993554387394253
seq1150	301	0.964454449109927	0.00243676628522757	0.217809417187264	0.217809417187264
seq1151	301	0.261786867214607	0.398792726734067	0.993554387394253	0.993554387394253
seq1152	300	0.0380491948848536	0.836558900862867	0.993554387394253	0.993554387394253
seq1153	300	0.112436447751128	0.62418990482539	0.993554387394253	0.993554387394253
seq1154	300	0.0210828451218767	0.908313891049143	0.993554387394253	0.993554387394253
seq1155	300	0.0275408654370598	0.879198607562123	0.993554387394253	0.993554387394253
seq1156	300	0.686493802131216	0.0964559493389623	0.993554387394253	0.993554387394253
seq1157	300	0.0418797833638089	0.821960522904862	0.993554387394253	0.993554387394253
seq1158	300	0.267663662156608	0.39228233899937	0.993554387394253	0.993554387394253
seq1159	300	0.989399783363354	0.000274043624782432	0.0454912417138837	0.0454912417138837
seq1160	300	0.0398023430430535	0.829596711476503	0.993554387394253	0.993554387394253
seq1161	300	0.0826076380911039	0.695093137799504	0.993554387394253	0.993554387394253
seq1162	300	0.496528379569607	0.20091100988779	0.993554387394253	0.993554387394253
