name	length	score	pvalue
seq1	1501440	0.0497503582215011	0.45343196701431
seq2	514496	0.0246851834610249	0.57749211739025
seq3	498519	0.212410064390587	0.213558088770313
seq4	436985	0.0448564255352232	0.47077370846471
seq5	419868	0.237005229573867	0.195488721804511
seq6	416838	0.329737261949143	0.147950521464953
seq7	376246	0.0306794869685662	0.540625757943245
seq8	354195	0.0226210927400129	0.596046568032986
seq9	265260	0.313687383281494	0.156318214892069
seq10	246075	0.156884730815517	0.262794081979141
seq11	228670	0.0516137277331833	0.448096046568033
seq12	218113	0.241841622968701	0.19306330341984
seq13	203278	0.302484915966013	0.160077613388309
seq14	196894	0.198942094568385	0.225200097016735
seq15	196846	0.298398695199034	0.162624302692214
seq16	194558	0.20988724361773	0.215619694397284
seq17	194366	0.289968822849503	0.166868784865389
seq18	191802	0.309111589858362	0.158016007761339
seq19	184116	0.235181622867973	0.19645888915838
seq20	183130	0.243282009479192	0.192335677904439
seq21	169162	0.0348036990475195	0.517948096046568
seq22	166835	0.0547969363451287	0.437424205675479
seq23	160125	0.0420498545387795	0.482900800388067
seq24	149954	0.273170252302994	0.177298083919476
seq25	144336	0.137256669769949	0.281954887218045
seq26	138526	0.279197736976821	0.174508852777104
seq27	132830	0.221248954735913	0.206039291777832
seq28	127265	0.205896219230074	0.219742905651225
seq29	116745	0.268584425477122	0.178995876788746
seq30	112254	0.298217669176799	0.162624302692214
seq31	111640	0.307018131585632	0.158501091438273
seq32	111535	0.167092077840708	0.253698763036624
seq33	109509	0.0291862815722296	0.549357264128062
seq34	108758	0.025753831371287	0.572034926024739
seq35	105772	0.290972830363599	0.166019888430754
seq36	104383	0.279559570073988	0.17438758185787
seq37	101034	0.146559480059225	0.272495755517827
seq38	98931	0.0170353648094532	0.643948581130245
seq39	97965	0.24313110816169	0.192456948823672
seq40	94170	0.306353574877394	0.15874363327674
seq41	90023	0.349433409182846	0.138491389764734
seq42	86579	0.227660814453707	0.202279893281591
seq43	81465	0.308584620970654	0.158016007761339
seq44	79285	0.227061187273653	0.202764976958525
seq45	75227	0.171362882451522	0.248726655348048
seq46	74309	0.0418145753405058	0.483749696822702
seq47	71963	0.0130410204800744	0.685059422750424
seq48	69536	0.236316500096614	0.195973805481446
seq49	66630	0.184520132340847	0.236599563424691
seq50	63869	0.0987872073186427	0.338224593742421
seq51	63443	0.530369297680552	0.0811302449672568
seq52	62459	0.0170311415123521	0.644069852049479
seq53	62344	0.248806829681448	0.190395343196701
seq54	57509	0.0794152020618531	0.376182391462527
seq55	55523	0.014652990340792	0.667960223138491
seq56	53798	0.102386411550214	0.33106960950764
seq57	53600	0.113133079049271	0.31542566092651
seq58	49860	0.165378343262204	0.25527528498666
seq59	47255	0.0127542913502208	0.689061363085132
seq60	47084	0.0546750171865363	0.437909289352413
seq61	46923	0.192965360828492	0.229929662866845
seq62	44574	0.254582891339151	0.186878486538928
seq63	43583	0.0330479476696582	0.526437060392918
seq64	42993	0.202792045313393	0.222410865874363
seq65	41913	0.0352389459292395	0.51528013582343
seq66	41715	0.937081320994044	0.00885277710405045
seq67	39357	0.0232819586475792	0.590468105748242
seq68	38841	0.999012519074151	0.000121270919233568
seq69	37379	0.999486849669879	0
seq70	36963	0.0221137016584881	0.598957070094591
seq71	35974	0.253435825150529	0.187727382973563
seq72	35621	0.0178896479249252	0.635702158622362
seq73	35484	0.171854301742995	0.248241571671113
seq74	35371	0.25153570934821	0.189061363085132
seq75	34652	0.021858044490122	0.600654862963861
seq76	33093	0.474957874779264	0.0947125879214164
seq77	31219	0.410848235527352	0.115934998787291
seq78	30557	0.382801533358952	0.126121756002911
seq79	30523	0.0267011331588881	0.566335192820762
seq80	28630	0.310788154621633	0.157167111326704
seq81	25231	0.166160088889393	0.254547659471259
seq82	22891	0.0690506890077514	0.397040989570701
seq83	21745	0.0299653513151766	0.543900072762552
seq84	21408	0.00685507470232898	0.77734659228717
seq85	18539	0.098420027002955	0.338588406500121
seq86	17740	0.0749361505001492	0.385762794081979
seq87	17525	0.0623109919332624	0.4136551055057
seq88	16707	0.213268332256171	0.212345379577977
seq89	16374	0.0659634558833361	0.40346834829008
seq90	15102	0.38879488739371	0.124423963133641
seq91	13182	0.0959257083565479	0.342711617754063
seq92	13152	0.188354340692271	0.233689061363085
seq93	11948	0.00225810799174558	0.889400921658986
seq94	11873	0.0170715459783384	0.643463497453311
seq95	11688	0.0220692258604055	0.599199611933058
seq96	11418	0.0651734511527263	0.405651224836284
seq97	11303	0.456960674063985	0.101503759398496
seq98	10942	0.0537042929373875	0.441304875090953
seq99	10848	0.0130915170029052	0.684453068154257
seq100	10404	0.0329748425031513	0.527285956827553
seq101	10206	0.212845257696741	0.212951734174145
seq102	9413	0.00817702799585119	0.754305117632792
seq103	9289	0.000196770374192034	0.987872908076643
seq104	8974	0.363222719483432	0.133034198399224
seq105	8758	0.0185130170435691	0.629638612660684
seq106	8647	0.00404598477337623	0.83616298811545
seq107	8409	0.02964552269548	0.546325491147223
seq108	8287	0.00366036512893852	0.847804996361872
seq109	8254	0.0480746454171687	0.459252971137521
seq110	6944	0.837931663966334	0.023284016492845
seq111	6832	0.00544331899835346	0.806087800145525
seq112	6823	0.295210790329442	0.163958282803784
seq113	6771	0.0796712657969982	0.375818578704827
seq114	6569	0.00678486729324073	0.778923114237206
seq115	6258	0.0445723937427504	0.471865146737812
seq116	6215	0.00284940965897473	0.86878486538928
seq117	6072	0.0160882150095491	0.651346107203493
seq118	6052	0.0207928733738276	0.607809847198642
seq119	5612	0.0219973365782735	0.599684695609993
seq120	5592	0.079884718228055	0.375454765947126
seq121	5589	0.00538234925657734	0.806815425660926
seq122	5556	0.0232375509884567	0.590468105748242
seq123	5490	0.0394314765487501	0.493087557603687
seq124	5441	0.99286446554096	0.00181906378850352
seq125	5220	0.0497466390223494	0.45343196701431
seq126	5191	0.0193668006365636	0.621756002910502
seq127	5176	0.00382123121527123	0.84331797235023
seq128	5167	0.019209020598339	0.623089983022071
seq129	5138	0.839260642097278	0.0231627455736114
seq130	5090	0.240933871663172	0.193790928935241
seq131	5061	0.430794579497482	0.109386369148678
seq132	4935	0.00246878861815882	0.881882124666505
seq133	4767	0.0868565420101797	0.360174630123696
seq134	4609	0.0638719536573204	0.408682997817123
seq135	4535	0.0388346439295594	0.49490662139219
seq136	4423	0.00358567134569325	0.849745331069609
seq137	4387	0.00982901420526747	0.726412806209071
seq138	4272	0.0205410167659743	0.609992723744846
seq139	4253	0.00136297369716355	0.923841862721319
seq140	4178	0.0230976258571074	0.59143827310211
seq141	4135	0.460698767143907	0.100412321125394
seq142	4042	0.0107089747631054	0.714164443366481
seq143	4025	0.135848162720998	0.283652680087315
seq144	4015	0.0243384737527217	0.579796264855688
seq145	3999	0.892695846751373	0.0141886975503274
seq146	3955	0.211874868964192	0.213921901528014
seq147	3855	0.469002760294211	0.0966529226291535
seq148	3835	0.00515203989010371	0.811666262430269
seq149	3788	0.221437584341769	0.205918020858598
seq150	3652	0.00965727011109131	0.728959495512976
seq151	3608	0.919394826546727	0.0111569245694882
seq152	3558	0.00651829197630809	0.784259034683483
seq153	3526	0.154852987711406	0.263642978413776
seq154	3523	0.291471937971805	0.165777346592287
seq155	3518	0.0108225893242653	0.713315546931846
seq156	3500	0.162683416589722	0.258064516129032
seq157	3496	0.505334692775322	0.0865874363327674
seq158	3474	0.0212343321490663	0.605626970652438
seq159	3446	0.39143389096723	0.123453795779772
seq160	3371	0.00178872711025208	0.907227746786321
seq161	3297	0.0676848855983459	0.399951491632307
seq162	3296	0.0223816270781103	0.597259277225321
seq163	3267	0.0120385458970086	0.697307785593015
seq164	3218	0.00506711337770121	0.813849138976473
seq165	3195	0.0438271525715695	0.474775648799418
seq166	3189	0.0128359823772644	0.687848653892796
seq167	3145	0.032439452788837	0.530317729808392
seq168	3120	0.2214268089635	0.206039291777832
seq169	3094	0.0689928767170069	0.397162260489935
seq170	2954	0.147304864449573	0.455136126280544
seq171	2952	0.0349411397501504	0.751464902140551
seq172	2921	0.0318406735746507	0.767608721648663
seq173	2878	0.0330741692681104	0.761310638976362
seq174	2871	0.068776827704918	0.622115039661976
seq175	2851	0.0521580425849418	0.677841112927014
seq176	2837	0.323307587505545	0.260971818073106
seq177	2829	0.0545923411401456	0.669310798421493
seq178	2817	0.260394074627992	0.315661497987005
seq179	2795	0.0277597569875121	0.787379917885758
seq180	2766	0.144866768454404	0.458962809423207
seq181	2747	0.0512571653832909	0.681827241200622
seq182	2698	0.037190088815259	0.740782078367282
seq183	2678	0.0821449588598083	0.584246821062702
seq184	2660	0.0686612193698674	0.622394068641129
seq185	2606	0.0235860703163958	0.810459600589947
seq186	2586	0.0584011525854526	0.655399210746602
seq187	2581	0.193878791521044	0.388488061545821
seq188	2567	0.0634068605604138	0.639414836369434
seq189	2555	0.17705823154417	0.411488021684538
seq190	2546	0.122546165718429	0.497548531111731
seq191	2513	0.0516764116627324	0.67991389962929
seq192	2503	0.0182672357152037	0.843584326543628
seq193	2494	0.0991560069123949	0.543588312671902
seq194	2487	0.136644352288312	0.471877865029697
seq195	2483	0.938548973836	0.00817156296089608
seq196	2469	0.411327981313868	0.201419061665404
seq197	2466	0.0579225770844722	0.657272691035197
seq198	2430	0.211183622221664	0.367122413999282
seq199	2426	0.219526343974144	0.356957786901582
seq200	2414	0.591421628280323	0.115318690955475
seq201	2403	0.308165916284678	0.272850480328457
seq202	2392	0.00776390559887927	0.925379678718061
seq203	2388	0.0716768796093093	0.613186112329095
seq204	2384	0.0724443058878797	0.611113325626819
seq205	2372	0.0224474077964526	0.817714354047913
seq206	2359	0.0849919647856689	0.57715151273568
seq207	2341	0.0372164212952457	0.740662494519074
seq208	2327	0.166833724911451	0.42599752860047
seq209	2302	0.361713404814666	0.232710168613226
seq210	2297	0.00971867706166304	0.907760991748714
seq211	2296	0.174270551744287	0.415394427392674
seq212	2289	0.0532892911469742	0.67453262645992
seq213	2278	0.0720922162239452	0.611950412564276
seq214	2271	0.0806160618508468	0.588033642922629
seq215	2260	0.0770751649745672	0.597401044365608
seq216	2251	0.0495314627774062	0.687248375652729
seq217	2241	0.0133718945278828	0.877944752262128
seq218	2218	0.0287904411891537	0.782317534978276
seq219	2215	0.0833616465171019	0.581456531271176
seq220	2205	0.0808310536358445	0.587555307529796
seq221	2203	0.027004290674388	0.791445768724838
seq222	2202	0.0422662910060745	0.716666002311954
seq223	2200	0.352277313665032	0.239008251285526
seq224	2198	0.81493726836908	0.0394228086259816
seq225	2196	0.174412310348371	0.415155259696257
seq226	2195	0.136026594036617	0.472595368118946
seq227	2173	0.238694638140061	0.337744648622793
seq228	2163	0.0239729142952227	0.807868617212102
seq229	2163	0.0576189022950786	0.658508390800016
seq230	2153	0.00266403456942719	0.974409056483438
seq231	2130	0.0413625544187533	0.721289911109339
seq232	2127	0.0615069706365571	0.645513612628054
seq233	2123	0.170246518364382	0.420895284410252
seq234	2083	0.0215899362637371	0.822617291824451
seq235	2073	0.310858659295637	0.270339219516084
seq236	2071	0.475127772396144	0.167138358512377
seq237	2069	0.0166450063274831	0.855064375971619
seq238	2059	0.44280539997601	0.183959819827002
seq239	2055	0.0233125340727154	0.812253358313071
seq240	2048	0.0279061602655841	0.7865428309483
seq241	2044	0.276492244135903	0.29975684617531
seq242	2043	0.259734351589467	0.316259417228046
seq243	2042	0.0552908312110908	0.666520508629968
seq244	2041	0.015251467490731	0.864033164587236
seq245	2032	0.310401591907066	0.270857416191653
seq246	2022	0.0983072210459936	0.545103041415873
seq247	2021	0.235781487801231	0.340136325586957
seq248	2008	0.220793317869332	0.355682225854028
seq249	2005	0.0224690239151527	0.817515047634233
seq250	1998	0.0274148239631873	0.789173675608881
seq251	1997	0.0104356788440425	0.901144018814525
seq252	1969	0.013893604502337	0.874118069119464
seq253	1962	0.0361697256559718	0.745366125881931
seq254	1951	0.0444648009446369	0.707856658827281
seq255	1920	0.0219095570315404	0.820863395384063
seq256	1918	0.0282305171764677	0.784749073225176
seq257	1907	0.0756186570695612	0.602343843424881
seq258	1889	0.325360505586479	0.259337505480926
seq259	1871	0.0527792138613817	0.676525690596723
seq260	1868	0.0466540146322941	0.69932634432176
seq261	1854	0.0511442621426902	0.68214613146251
seq262	1844	0.0159539890941294	0.859768007334476
seq263	1830	0.109371862372876	0.521505162036114
seq264	1823	0.0515858216753264	0.680432096304859
seq265	1821	0.0463311179234031	0.70044246023837
seq266	1813	0.133659432966576	0.476342328696137
seq267	1807	0.206961237140225	0.37182604536214
seq268	1803	0.0610208231329925	0.647705983178539
seq269	1801	0.0527382351644385	0.676565551879459
seq270	1792	0.180379881956178	0.406624945190736
seq271	1778	0.681325738280579	0.0801211782995177
seq272	1771	0.0842685857328462	0.57918443815522
seq273	1763	0.0732389811518454	0.60896081635907
seq274	1762	0.083248577460156	0.581496392553912
seq275	1760	0.0596353667342884	0.651771834017619
seq276	1752	0.0221682994733113	0.819348666640092
seq277	1746	0.0939119547900105	0.55570614262367
seq278	1740	0.161249674803107	0.43484673336788
seq279	1739	0.114392920474182	0.511978315462192
seq280	1731	0.244893953465981	0.331087814405868
seq281	1706	0.0284474220152689	0.783872125004983
seq282	1700	0.115259609216882	0.510583170566429
seq283	1683	0.0248326267674784	0.803204847131981
seq284	1674	0.07031398682771	0.617530992147327
seq285	1661	0.634870197246154	0.0967831944831985
seq286	1652	0.0244894921119901	0.804958743572368
seq287	1642	0.0897204768998952	0.566388966396939
seq288	1635	0.0476746838471767	0.694981464503528
seq289	1632	0.175286061841276	0.41360066966955
seq290	1629	0.26468338100055	0.311675369713397
seq291	1622	0.0108305476680293	0.898393590305736
seq292	1621	0.0495119161805927	0.687328098218201
seq293	1619	0.00780279895590048	0.924901343325228
seq294	1609	0.806186216266365	0.0420137920038267
seq295	1605	0.0201665499549979	0.83126719017818
seq296	1604	0.0622655281107971	0.64332124207757
seq297	1603	0.0622914490402024	0.643241519512098
seq298	1589	0.198683878749992	0.38218997887352
seq299	1588	0.471702724124552	0.168852393670028
seq300	1587	0.806209081515441	0.0420137920038267
seq301	1577	0.0240750242252137	0.807310559253797
seq302	1575	0.626486977949995	0.100171403515765
seq303	1565	0.411863735731018	0.20125961653446
seq304	1562	0.179016408838102	0.409056483437637
seq305	1560	0.138484619011337	0.468529517279866
seq306	1553	0.0608716142938349	0.648064734723163
seq307	1550	0.173705514933523	0.416191653047395
seq308	1550	0.360422195378131	0.233507394267948
seq309	1542	0.300425407169015	0.279188424283493
seq310	1539	0.0532100934943287	0.675050823135488
seq311	1536	0.00632128758511397	0.938454179455495
seq312	1532	0.0481948358548519	0.692549926256627
seq313	1525	0.147779236583567	0.45445848447403
seq314	1521	0.082892172543925	0.58233347949137
seq315	1520	0.44853930746303	0.180890501056324
seq316	1520	0.1493872886991	0.451907362378921
seq317	1519	0.487430005390595	0.161438195081118
seq318	1516	0.119900778572624	0.5019332722127
seq319	1504	0.0101576348381432	0.903735002192371
seq320	1490	0.596200869205173	0.113285765535935
seq321	1488	0.0903755902693075	0.565073544066648
seq322	1470	0.146103386851745	0.456770438872723
seq323	1470	0.0522346152020844	0.677721529078806
seq324	1467	0.612667432452	0.106589070036274
seq325	1466	0.357442016800391	0.235460597122015
seq326	1463	0.00897647171217529	0.913859768007334
seq327	1463	0.130647724612326	0.481922908279188
seq328	1462	0.10310761277935	0.534938414318173
seq329	1461	0.183618893129626	0.402439510503448
seq330	1460	0.0379408787620824	0.73683581137641
seq331	1440	0.0184894950263688	0.841989875234185
seq332	1440	0.0390163670569828	0.731534260772512
seq333	1436	0.381607791797339	0.219595806593056
seq334	1434	0.0197032966383806	0.833898034838761
seq335	1433	0.0521488501919024	0.67788097420975
seq336	1432	0.0259145869305046	0.797584406266194
seq337	1430	0.0596016700395923	0.651851556583091
seq338	1421	0.0735063078425838	0.608402758400765
seq339	1421	0.04196610340205	0.718180731055925
seq340	1406	0.11499863517011	0.510941922111053
seq341	1405	0.0576963236647907	0.658149639255391
seq342	1404	0.165073098801527	0.428827679674732
seq343	1403	0.0353027457462886	0.749511699286483
seq344	1399	0.0351513783809208	0.750388647506677
seq345	1399	0.214406512385834	0.363056563160203
seq346	1392	0.0521870019589344	0.677841112927014
seq347	1391	0.0107620027764638	0.898832064415833
seq348	1384	0.0380324682283945	0.736596643679994
seq349	1383	0.632002395641528	0.0979391716825447
seq350	1383	0.563594269631747	0.126918324231674
seq351	1382	0.0143447907088793	0.870331247259537
seq352	1381	0.0991983276817233	0.54350859010643
seq353	1380	0.151047850309899	0.449555546697493
seq354	1379	0.733094063357619	0.0652529198389604
seq355	1379	0.318906908934491	0.264599194802089
seq356	1370	0.0550540874915249	0.667357595567425
seq357	1368	0.090720660256658	0.564196595846454
seq358	1367	0.0704706769646434	0.616853350340814
seq359	1366	0.0676037874019607	0.625862000239168
seq360	1366	0.0450344960560136	0.705903455973213
seq361	1362	0.00408502030131275	0.95954079802288
seq362	1360	0.243578385890784	0.332403236736158
seq363	1360	0.0194190984964912	0.835771515127357
seq364	1357	0.0449583512974184	0.706182484952366
seq365	1354	0.108191033772817	0.524175867979432
seq366	1351	0.0228062179806893	0.815641567345637
seq367	1350	0.0209185377946335	0.827360784470044
seq368	1348	0.00694290890048552	0.932993183720652
seq369	1348	0.254467101441473	0.321521106549209
seq370	1342	0.0331225549031538	0.760912026149001
seq371	1341	0.015252886193789	0.864033164587236
seq372	1335	0.192710440950289	0.390042651572528
seq373	1329	0.416318733716581	0.198628771873879
seq374	1328	0.120089454524112	0.501654243233547
seq375	1323	0.0847301244002125	0.577829154542193
seq376	1323	0.131560653207288	0.480208873121537
seq377	1323	0.00424962509079709	0.958265236975326
seq378	1319	0.471089984709484	0.169011838800973
seq379	1319	0.0306050053647064	0.772830549687089
seq380	1316	0.35055991122073	0.240004783353928
seq381	1316	0.907855262600744	0.0149081197432933
seq382	1316	0.188026060379838	0.396141427831148
seq383	1316	0.276605468687785	0.299716984892574
seq384	1313	0.126095669169707	0.49085183561207
seq385	1310	0.975950064163621	0.00183361900585961
seq386	1310	0.0955001719325155	0.552517240004783
seq387	1306	0.415287506634051	0.199386136245864
seq388	1306	0.148319481970477	0.453581536253837
seq389	1301	0.0282177945049695	0.784828795790649
seq390	1293	0.0100111960590444	0.904890979391717
seq391	1290	0.0806514656227807	0.587953920357157
seq392	1281	0.246986728417105	0.329174472834536
seq393	1280	0.677376578871503	0.081795352174433
seq394	1279	0.0281651399150925	0.785187547335273
seq395	1277	0.244387171077157	0.331685733646909
seq396	1276	0.920173029532246	0.0123171363654482
seq397	1275	0.999968452979143	0
seq398	1273	0.860499693876014	0.0270259496950612
seq399	1269	0.0993720936605019	0.543070115996333
seq400	1269	0.479625547831515	0.165145294375573
seq401	1266	0.384882589510557	0.217084545780683
seq402	1258	0.108785773578409	0.522900306931877
seq403	1257	0.0199460861477756	0.83218399968111
seq404	1256	0.189138092266145	0.394865866783593
seq405	1253	0.166962743120692	0.425838083469526
seq406	1251	0.16823781767891	0.424403077291027
seq407	1250	0.0310872148367856	0.770638179136605
seq408	1247	0.528079088949956	0.142902698608841
seq409	1245	0.0824858543938415	0.583888069518077
seq410	1238	0.00492389646873904	0.951130067365568
seq411	1229	0.979655589391039	0.00135528361302667
seq412	1229	0.937761223281445	0.0083310080918404
seq413	1229	0.104261417430037	0.532506876071272
seq414	1225	0.781518294483049	0.049268545461793
seq415	1216	0.534976641262739	0.139036154183442
seq416	1212	0.24969638078031	0.326304460477538
seq417	1210	0.00191915221064576	0.982102284051501
seq418	1210	0.221953319832679	0.354526248654682
seq419	1208	0.547406042592492	0.133774464862279
seq420	1207	0.161651916351553	0.43412923027863
seq421	1207	0.0208167112299352	0.827878981145613
seq422	1205	0.00348735366182573	0.965799019412445
seq423	1202	0.505667819509058	0.15338621596843
seq424	1200	0.360920466127325	0.233268226571531
seq425	1199	0.0428163612292798	0.714154741499581
seq426	1198	0.0229428537207529	0.81500378682186
seq427	1194	0.159997237097479	0.436760074939212
seq428	1190	0.196482650418387	0.385219436361462
seq429	1189	0.834579396420286	0.0342807031530275
seq430	1184	0.175865654912484	0.412763582732092
seq431	1180	0.0676296100005148	0.625782277673696
seq432	1173	0.293864003321273	0.284729142583808
seq433	1172	0.955395002455733	0.00506238290748196
seq434	1171	0.865551380487861	0.0256706660820345
seq435	1168	0.215746017408974	0.361462111850759
seq436	1162	0.206230292164658	0.372902299996014
seq437	1161	0.01309305206998	0.880097261529876
seq438	1157	0.0550107165306026	0.667556901981106
seq439	1157	0.112542792867133	0.515565830908439
seq440	1155	0.984591260401485	0.000916809502929804
seq441	1154	0.247339395204448	0.328576553593495
seq442	1153	0.0296675512568461	0.778251684139196
seq443	1152	0.0137803722583959	0.874755849643241
seq444	1149	0.115398230158305	0.510383864152748
seq445	1142	0.0260542529738863	0.796866903176944
seq446	1133	0.00212461756663087	0.980109219914697
seq447	1129	0.0372305133276883	0.740582771953601
seq448	1128	0.913261813778478	0.0139115876748914
seq449	1128	0.195675935593922	0.38605652329892
seq450	1126	0.0295121784900125	0.779009048511181
seq451	1125	0.0101780869843022	0.903615418344162
seq452	1120	0.0117854622006954	0.89042133375852
seq453	1120	0.0113172423350299	0.893929126639295
seq454	1120	0.239504362715631	0.336907561685335
seq455	1119	0.158718819678721	0.438553832662335
seq456	1117	0.336426071734492	0.250807190975406
seq457	1112	0.164529747281401	0.42986407302587
seq458	1110	0.0192493602673732	0.836807908478495
seq459	1109	0.0171031464458365	0.85179575078726
seq460	1108	0.184884996897243	0.400566030214852
seq461	1104	0.188196740997892	0.395902260134731
seq462	1102	0.864982668115863	0.0258699724957149
seq463	1101	0.0367519538794914	0.742775142504086
seq464	1100	0.881698459427141	0.0212859249810659
seq465	1098	0.0125761714627579	0.884442141348109
seq466	1098	0.0176876157715572	0.847291425838083
seq467	1096	0.0145282492786725	0.869095547494718
seq468	1093	0.0143448927496003	0.870331247259537
seq469	1093	0.105313707904058	0.530194921672579
seq470	1090	0.0738653130477756	0.607246781201419
seq471	1090	0.167929486779517	0.424841551401124
seq472	1090	0.0198950000503585	0.832622473791207
seq473	1086	0.00519949975202128	0.94826005500857
seq474	1085	0.0928785749365815	0.558576154980667
seq475	1083	0.275090724491018	0.301072268505601
seq476	1079	0.227751194811386	0.34854705624427
seq477	1076	0.95531479416908	0.00506238290748196
seq478	1076	0.525959698802823	0.143899230677243
seq479	1074	0.0940657771741148	0.555427113644517
seq480	1074	0.125687604204289	0.491808506397736
seq481	1074	0.196906803771625	0.384501933272213
seq482	1072	0.199698226328576	0.380754972695021
seq483	1071	0.974640623770741	0.00195320285406784
seq484	1071	0.0881868619043136	0.569378562602145
seq485	1069	0.015715346084097	0.861362458643919
seq486	1068	0.405106273710827	0.20512616095986
seq487	1063	0.453681187330518	0.178179933830271
seq488	1063	0.00605066522262233	0.940686411288715
seq489	1062	0.0103000413148911	0.902579024993024
seq490	1060	0.065520342194966	0.632120221628732
seq491	1058	0.0446484950000535	0.707338462151712
seq492	1058	0.605753766275151	0.109100330848647
seq493	1058	0.985802526293802	0.000876948220193726
seq494	1058	0.0293121648284548	0.780045441862319
seq495	1055	0.345497218990751	0.243791605213856
seq496	1052	0.120114288883341	0.501654243233547
seq497	1051	0.0997834868043739	0.542073583927931
seq498	1049	0.518293015843629	0.147606329971698
seq499	1047	0.065377370247724	0.632518834456093
seq500	1047	0.116484439849486	0.508271216167736
seq501	1046	0.974664512084851	0.00195320285406784
seq502	1044	0.808528477565703	0.0413760114800494
seq503	1044	0.0626457317749286	0.641965958464543
seq504	1044	0.0710801002646268	0.614940008769482
seq505	1043	0.0413440800366175	0.721329772392076
seq506	1040	0.466285436040653	0.171443377047873
seq507	1039	0.0327264926429267	0.762705783872125
seq508	1037	0.0387528656962115	0.733208434647427
seq509	1036	0.344207403709834	0.244947582413202
seq510	1033	0.168222470410008	0.424403077291027
seq511	1032	0.510145701349398	0.150994539004265
seq512	1032	0.0615567346598404	0.64535416749711
seq513	1031	0.059223629869067	0.652887949934229
seq514	1029	0.00848843251232408	0.918164786542831
seq515	1028	0.447765406205422	0.181289113883685
seq516	1028	0.0548895414725358	0.667955514808466
seq517	1027	0.0350532226746559	0.751026428030454
seq518	1024	0.251900637730455	0.323912783513373
seq519	1022	0.68363467999928	0.0795631203412126
seq520	1021	0.082402885759466	0.583927930800813
seq521	1019	0.152148794991874	0.447841511539841
seq522	1016	0.0359824478971771	0.746362657950333
seq523	1016	0.013350717746278	0.878104197393072
seq524	1015	0.26391777547542	0.312552317933591
seq525	1014	0.723267369042194	0.0678439032168055
seq526	1012	0.0494216561164557	0.687527404631881
seq527	1011	0.530547968775454	0.141308247299398
seq528	1009	0.088852003770505	0.568222585402798
seq529	1009	0.0172039863878957	0.850918802567067
seq530	1009	0.0165723722118462	0.85546298879898
seq531	1008	0.0687891268633449	0.622035317096504
seq532	1007	0.990110262035077	0.000597919241041177
seq533	1006	0.0611253640705404	0.647068202654761
seq534	1006	0.00542291206021202	0.946346713437238
seq535	1006	0.332688047509165	0.253836648463348
seq536	1006	0.0566398069304677	0.661896599832583
seq537	1004	0.0196789035037061	0.834097341252442
seq538	1004	0.0371883336310697	0.740782078367282
seq539	1004	0.0320672943957408	0.766373021883844
seq540	1003	0.650513138443988	0.0912823374656196
seq541	1000	0.448341875976561	0.180970223621796
seq542	1000	0.519029156247484	0.147247578427074
seq543	999	0.205090170325945	0.479066534260179
seq544	999	0.0124718136874833	0.956246276067527
seq545	998	0.0176289692300027	0.934339622641509
seq546	998	0.0545128368651785	0.798033763654419
seq547	998	0.256283855534859	0.411996027805362
seq548	998	0.0685659062082359	0.755094339622641
seq549	998	0.372161344283598	0.28883813306852
seq550	996	0.0309517146418723	0.881151936444886
seq551	995	0.192875582447915	0.496762661370407
seq552	995	0.286045515021717	0.376921549155909
seq553	994	0.139972123627689	0.585898709036743
seq554	993	0.0815765199621902	0.719563058589871
seq555	992	0.0219037060447913	0.916703078450844
seq556	989	0.381215684823752	0.281132075471698
seq557	987	0.0873185546508964	0.704627606752731
seq558	986	0.0815535029839828	0.719682224428997
seq559	984	0.110714294540083	0.648381330685204
seq560	984	0.0260535453389059	0.900675273088381
seq561	982	0.315782843125325	0.344766633565045
seq562	982	0.0284440345120024	0.891201588877855
seq563	982	0.755835635810923	0.0605362462760675
seq564	978	0.199850013919489	0.486315789473684
seq565	978	0.680989220190386	0.093604766633565
seq566	978	0.11337008994962	0.642204568023833
seq567	977	0.399076590475597	0.266673286991063
seq568	976	0.141178946633462	0.583594836146971
seq569	976	0.34376338218901	0.31571002979146
seq570	975	0.367564818229388	0.293167825223436
seq571	973	0.51813009750452	0.182482621648461
seq572	969	0.576023792233245	0.147825223435948
seq573	969	0.626252715691346	0.120695134061569
seq574	969	0.0267992041339336	0.897795431976167
seq575	967	0.385588092974799	0.277378351539225
seq576	966	0.553062152722838	0.161191658391261
seq577	964	0.139838757383888	0.586256206554121
seq578	964	0.329394821944981	0.329930486593843
seq579	963	0.319853522006496	0.340099304865938
seq580	961	0.688807117662965	0.089493545183714
seq581	958	0.143916222039615	0.578609731876862
seq582	958	0.0636860197428072	0.769433962264151
seq583	957	0.0730424410080802	0.741986097318769
seq584	956	0.0213145186970406	0.918867924528302
seq585	955	0.0514301071226558	0.808023833167825
seq586	955	0.101566006328426	0.669910625620655
seq587	953	0.192988061664843	0.496643495531281
seq588	952	0.0421580115545415	0.840417080436941
seq589	952	0.806717999127087	0.04240317775571
seq590	952	0.148175073510226	0.571281032770606
seq591	952	0.0859042834580315	0.708560079443893
seq592	952	0.0975751169145017	0.678867924528302
seq593	949	0.229192620050999	0.446117179741807
seq594	949	0.361115431209879	0.29888778550149
seq595	949	0.606150223440502	0.131142005958292
seq596	948	0.615602573189818	0.12635551142006
seq597	947	0.733477793217056	0.0699900695134062
seq598	947	0.161499042988222	0.546812313803376
seq599	947	0.573987395442553	0.149136047666336
seq600	946	0.0728437077576272	0.742542204568024
seq601	946	0.113916803142569	0.641072492552135
seq602	945	0.212150604601474	0.469235352532274
seq603	945	0.0560245701713587	0.792969215491559
seq604	944	0.285946683256694	0.377040714995035
seq605	943	0.0318833068762282	0.877894736842105
seq606	942	0.083200615875525	0.715233366434955
seq607	940	0.38868908030247	0.274538232373386
seq608	939	0.195203749386209	0.49304865938431
seq609	938	0.0897421676620526	0.69837140019861
seq610	938	0.141934382249167	0.582244289970208
seq611	937	0.115669661810224	0.637020854021847
seq612	936	0.13497885699594	0.595868917576961
seq613	936	0.729803523796071	0.0716981132075472
seq614	935	0.614359708790775	0.127308838133069
seq615	934	0.0962325157921445	0.682045680238332
seq616	929	0.0501756356556442	0.812413108242304
seq617	928	0.583352017611717	0.143634558093347
seq618	921	0.4856572069309	0.203197616683217
seq619	920	0.0590772863621622	0.783455809334657
seq620	920	0.169847975626511	0.532691161866931
seq621	920	0.169681082836388	0.532989076464747
seq622	920	0.186121582952397	0.506554121151936
seq623	917	0.665908178539403	0.101350546176763
seq624	916	0.768091743930652	0.0560476663356504
seq625	916	0.471528154181836	0.212889771598808
seq626	916	0.26315947538156	0.403157894736842
seq627	916	0.590974163883256	0.139265143992056
seq628	914	0.0252081171382936	0.9040317775571
seq629	912	0.106049587222439	0.659006951340616
seq630	911	0.199969697806717	0.486236345580933
seq631	910	0.0692889632929789	0.753068520357497
seq632	909	0.0770244497447614	0.731042701092353
seq633	909	0.09543630368786	0.684210526315789
seq634	907	0.0681161573908742	0.756524329692155
seq635	907	0.0184184706623791	0.930446871896723
seq636	905	0.320269483712111	0.339761668321748
seq637	905	0.0223392601100001	0.914716981132075
seq638	902	0.267500386168389	0.39785501489573
seq639	902	0.553866640504766	0.160595829195631
seq640	901	0.332475190206615	0.326891757696127
seq641	900	0.205369964456398	0.478589870903674
seq642	899	0.124345150911039	0.618013902681231
seq643	898	0.335991194132714	0.323316782522344
seq644	897	0.0498171285995372	0.813803376365442
seq645	896	0.152384157773708	0.563316782522344
seq646	894	0.0514394759221005	0.80798411122145
seq647	894	0.992188439571422	3.97219463753724e-05
seq648	894	0.135824899501989	0.594200595829196
seq649	892	0.103605085003525	0.664746772591857
seq650	892	0.0497599365825883	0.813922542204568
seq651	891	0.813373036616724	0.0400198609731877
seq652	891	0.0220501831927406	0.91604766633565
seq653	890	0.732780166097597	0.0701489572989076
seq654	890	0.206147453620085	0.477735849056604
seq655	890	0.125796600918539	0.615233366434955
seq656	889	0.227091775994191	0.448818272095333
seq657	888	0.457402136771556	0.222303872889772
seq658	888	0.418843870303516	0.250923535253227
seq659	887	0.150760892277562	0.56643495531281
seq660	886	0.182865560628243	0.511142005958292
seq661	885	0.105961475852102	0.659245283018868
seq662	883	0.0414485033542455	0.842601787487587
seq663	882	0.114021585878613	0.640794438927507
seq664	882	0.344534299731142	0.31493545183714
seq665	881	0.0336418649358137	0.871817279046673
seq666	881	0.0885632173838678	0.701390268123138
seq667	881	0.33990821211615	0.319801390268123
seq668	880	0.757522582011835	0.0598808341608739
seq669	880	0.0655595664976622	0.76377358490566
seq670	879	0.227378390891313	0.448480635551142
seq671	878	0.163195084991204	0.543714001986097
seq672	878	0.248690043752976	0.421151936444886
seq673	878	0.227053473185513	0.448937437934459
seq674	877	0.799983546079925	0.0444885799404171
seq675	877	0.0366891894853862	0.860158887785502
seq676	876	0.149512263741291	0.568917576961271
seq677	876	0.0508437921907623	0.809910625620655
seq678	874	0.0123995154723615	0.956524329692155
seq679	873	0.534776878180425	0.172154915590864
seq680	872	0.0255097025357668	0.902641509433962
seq681	870	0.285811052678047	0.37708043694141
seq682	868	0.124657661232963	0.617437934458788
seq683	868	0.0456835070567018	0.827447864945382
seq684	867	0.0400678140474197	0.84746772591857
seq685	863	0.198125492883168	0.488718967229394
seq686	861	0.244758507778531	0.425739821251241
seq687	860	0.0475917773679191	0.820794438927507
seq688	857	0.0438270781215237	0.83416087388282
seq689	856	0.0840959833898555	0.713088381330685
seq690	856	0.0830855563287207	0.715590863952334
seq691	856	0.0206221819942156	0.921827209533267
seq692	855	0.0551857358862573	0.795908639523337
seq693	855	0.29078040571449	0.370963257199603
seq694	854	0.0453267372709444	0.828540218470705
seq695	853	0.608380069677893	0.130029791459782
seq696	851	0.0333151763031551	0.873068520357497
seq697	851	0.956855671336592	0.0030188679245283
seq698	850	0.0910436448055168	0.694915590863952
seq699	850	0.126744644647553	0.613128103277061
seq700	849	0.614783172475379	0.126911618669315
seq701	849	0.219562148021178	0.459165839126117
seq702	848	0.438411001297778	0.236266137040715
seq703	847	0.194800494110096	0.493684210526316
seq704	846	0.615007141136733	0.126792452830189
seq705	845	0.604837615897995	0.131857000993049
seq706	845	0.505804930094799	0.190327706057597
seq707	845	0.599861561587383	0.134538232373386
seq708	844	0.119138366393381	0.629155908639523
seq709	843	0.371206032700551	0.289692154915591
seq710	842	0.135738246955134	0.594359483614697
seq711	841	0.855025545224464	0.0269116186693148
seq712	841	0.292572070825183	0.369116186693148
seq713	840	0.0491959233102177	0.815551142005958
seq714	840	0.214433693445854	0.466037735849057
seq715	839	0.700860656327271	0.0845680238331678
seq716	839	0.178149506509809	0.51888778550149
seq717	838	0.830440221823265	0.0341410129096326
seq718	838	0.701609328408966	0.0842303872889772
seq719	837	0.382957567656312	0.279622641509434
seq720	836	0.228408164671521	0.447288977159881
seq721	836	0.518070758434952	0.182522343594836
seq722	834	0.120689750276045	0.625422045680238
seq723	833	0.029160556953079	0.888381330685204
seq724	831	0.101674645406096	0.669652432969216
seq725	829	0.300567984723282	0.360993048659384
seq726	828	0.81873657612343	0.0383316782522344
seq727	826	0.977213652352969	0.000953326713008937
seq728	826	0.374945627622089	0.286494538232373
seq729	826	0.127735489032635	0.611062562065541
seq730	824	0.221229027916699	0.457040714995035
seq731	823	0.04396718655135	0.833525322740814
seq732	823	0.0717646662274857	0.745779543197617
seq733	820	0.0834646930765143	0.714617676266137
seq734	820	0.180962456922005	0.51416087388282
seq735	820	0.561522926951971	0.156365441906653
seq736	819	0.135084061234386	0.595571002979146
seq737	818	0.179471046385759	0.516464746772592
seq738	818	0.159023660728314	0.551201588877855
seq739	817	0.446409622410428	0.229831181727905
seq740	816	0.593300793063798	0.138013902681231
seq741	816	0.0875968315302468	0.703853028798411
seq742	814	0.137848855497035	0.590029791459782
seq743	814	0.642066883849695	0.112711022840119
seq744	814	0.593031814948511	0.138212512413108
seq745	812	0.0369897088159131	0.858848063555114
seq746	812	0.621769660187044	0.122999006951341
seq747	812	0.036289776362354	0.861767626613704
seq748	811	0.257833081714188	0.410009930486594
seq749	810	0.688667121383464	0.0895134061569017
seq750	810	0.159677166927662	0.550049652432969
seq751	810	0.126025026557075	0.6146772591857
seq752	808	0.899768270791482	0.013604766633565
seq753	808	0.45388907717139	0.224587884806355
seq754	807	0.826844090483928	0.0353723932472691
seq755	807	0.0564748890760004	0.791261171797418
seq756	806	0.198811696878763	0.487825223435948
seq757	802	0.00695209967883438	0.979860973187686
seq758	802	0.145097251672905	0.576464746772592
seq759	801	0.43603766949613	0.237934458788481
seq760	801	0.169572898705126	0.533108242303873
seq761	800	0.0305703157016151	0.882442899702085
seq762	794	0.832062769109388	0.033604766633565
seq763	794	0.805958411461707	0.0427805362462761
seq764	794	0.755983692346156	0.0604766633565045
seq765	794	0.209173275186244	0.47330685203575
seq766	793	0.214897511127296	0.465203574975174
seq767	793	0.0362326894683659	0.861946375372393
seq768	792	0.195428059928681	0.492750744786495
seq769	792	0.378021133754198	0.283833167825223
seq770	791	0.0953725319589916	0.684369414101291
seq771	791	0.119137285797365	0.629155908639523
seq772	791	0.479599262565652	0.207547169811321
seq773	790	0.0460154817112046	0.826216484607746
seq774	790	0.458541821984557	0.221668321747766
seq775	790	0.168757792294196	0.534359483614697
seq776	786	0.497444142472524	0.195888778550149
seq777	783	0.103548294469587	0.664905660377359
seq778	783	0.375228593460475	0.286295928500497
seq779	783	0.0678720650146347	0.757140019860973
seq780	782	0.168911070613124	0.534061569016882
seq781	781	0.0222293100042368	0.915153922542205
seq782	781	0.104728179504101	0.662125124131082
seq783	780	0.0689711871678377	0.753843098311817
seq784	780	0.403508759438536	0.263356504468719
seq785	780	0.0104278982437005	0.964428997020854
seq786	779	0.580692989860778	0.145263157894737
seq787	776	0.23205726162188	0.442224428997021
seq788	775	0.390836270825126	0.272949354518371
seq789	775	0.0774466421066272	0.729930486593843
seq790	775	0.467058825987274	0.216027805362463
seq791	775	0.274415247890167	0.390268123138034
seq792	773	0.159092697135466	0.551062562065541
seq793	772	0.0195659291159108	0.92635551142006
seq794	772	0.106053956976989	0.659006951340616
seq795	771	0.811014369201358	0.0407745779543198
seq796	771	0.116791958589585	0.634458788480636
seq797	771	0.0584840224710932	0.785223435948361
seq798	771	0.130197047499516	0.605878848063555
seq799	770	0.153083460051322	0.56188679245283
seq800	769	0.0649067758512252	0.765878848063555
seq801	769	0.304755155861279	0.356385302879841
seq802	769	0.382981206775683	0.279602780536246
seq803	769	0.360764243277142	0.299185700099305
seq804	767	0.307615792732934	0.353187686196624
seq805	767	0.249151884913736	0.420595829195631
seq806	767	0.116958922331184	0.634141012909633
seq807	767	0.476935138001877	0.209314796425025
seq808	766	0.476049577281706	0.20987090367428
seq809	763	0.221926698560304	0.456027805362463
seq810	763	0.0578123960026381	0.787050645481629
seq811	763	0.131269267250489	0.603455809334657
seq812	762	0.491297647875463	0.199682224428997
seq813	761	0.0403476909945245	0.846534260178749
seq814	760	0.0328073941643641	0.874856007944389
seq815	760	0.14696166151655	0.573286991062562
seq816	760	0.0464151639318449	0.824826216484608
seq817	760	0.334501420411428	0.32506454816286
seq818	759	0.055207682546836	0.795868917576961
seq819	758	0.158920195558759	0.55142005958292
seq820	757	0.141479006467511	0.583078450844091
seq821	757	0.051543875112926	0.807745779543198
seq822	756	0.317186571529278	0.343038728897716
seq823	756	0.531782472426703	0.173862959285005
seq824	756	0.158634723532455	0.551797418073486
seq825	756	0.0084470971959769	0.973704071499503
seq826	755	0.835256726610796	0.0327110228401192
seq827	755	0.0328212190363888	0.874816285998014
seq828	753	0.265137214259306	0.400575968222443
seq829	750	0.204907887760995	0.479285004965243
seq830	750	0.03600729075564	0.862800397219464
seq831	749	0.238686615314131	0.433525322740814
seq832	749	0.479512678542946	0.207606752730884
seq833	748	0.126186175864653	0.614399205561073
seq834	748	0.455828099690019	0.223257199602781
seq835	745	0.0120594980378587	0.957755710029791
seq836	745	0.681392159482208	0.0933862959285005
seq837	743	0.33772186095232	0.32162859980139
seq838	743	0.198427670446276	0.488321747765641
seq839	743	0.357087708374197	0.30291956305859
seq840	743	0.269277953260431	0.395690168818272
seq841	742	0.118345433415725	0.630824230387289
seq842	742	0.186324835202943	0.506375372393247
seq843	742	0.0994545264236058	0.675034756703078
seq844	740	0.599721170364027	0.134577954319762
seq845	740	0.068777730217071	0.754438927507448
seq846	738	0.197114353500531	0.490287984111221
seq847	737	0.999997715904191	0
seq848	736	0.258228884802952	0.409433962264151
seq849	735	0.399808334713732	0.266137040714995
seq850	735	0.907694682688678	0.0119364448857994
seq851	734	0.479219933033193	0.207785501489573
seq852	733	0.104327453817372	0.66317775571003
seq853	732	0.0902177800499494	0.697279046673287
seq854	732	0.0540596132504937	0.799324726911619
seq855	732	0.30483876353703	0.356325719960278
seq856	730	0.0118014753048232	0.958728897715988
seq857	730	0.0912430998976941	0.694538232373386
seq858	729	0.327622744164105	0.331559086395233
seq859	729	0.582528884415982	0.1440317775571
seq860	729	0.3572743144995	0.302720953326713
seq861	727	0.248549255607167	0.421350546176763
seq862	726	0.838740095529633	0.0317378351539225
seq863	725	0.0777300525965344	0.729036742800397
seq864	725	0.238625553334951	0.433604766633565
seq865	724	0.0596929750337479	0.781588877855015
seq866	724	0.205542466173786	0.478430983118173
seq867	724	0.445234532508885	0.230705064548163
seq868	723	0.261221998358795	0.405640516385303
seq869	723	0.0556192298828504	0.794121151936445
seq870	723	0.0485988985401365	0.817497517378352
seq871	723	0.43258537043828	0.240139026812314
seq872	722	0.199307457868452	0.487348560079444
seq873	720	0.282376484023283	0.381132075471698
seq874	719	0.0571712578014147	0.789155908639523
seq875	718	0.0954787320493808	0.684051638530288
seq876	717	0.194156404269312	0.494856007944389
seq877	717	0.108752110594904	0.653028798411122
seq878	717	0.403330736468681	0.26343594836147
seq879	717	0.0684965553216641	0.755233366434955
seq880	716	0.722363171039705	0.0747368421052632
seq881	715	0.0920931420068232	0.692115193644489
seq882	714	0.198443213414621	0.488321747765641
seq883	714	0.215429270725146	0.464568023833168
seq884	714	0.0484693595522875	0.817954319761668
seq885	713	0.0202558345627733	0.923455809334657
seq886	712	0.39104208070498	0.272830188679245
seq887	711	0.211430995617535	0.470327706057597
seq888	711	0.0919208590986148	0.692770605759682
seq889	711	0.902588423517391	0.0130486593843098
seq890	710	0.0730567463853165	0.741906653426018
seq891	710	0.099275142707352	0.67545183714002
seq892	709	0.715822165379179	0.0776961271102284
seq893	709	0.430137185089616	0.242085402184707
seq894	709	0.0808968448024442	0.721410129096326
seq895	709	0.589722545692163	0.139900695134062
seq896	708	0.444377314300893	0.231400198609732
seq897	708	0.0192596055296568	0.927308838133069
seq898	707	0.12910470372772	0.608599801390268
seq899	706	0.155770067769684	0.55656405163853
seq900	705	0.0235105582644082	0.910665342601787
seq901	703	0.18543812055971	0.507428003972195
seq902	702	0.149799341161363	0.568301886792453
seq903	702	0.0777078796608572	0.729155908639523
seq904	701	0.179456560645778	0.516544190665343
seq905	701	0.695652379340252	0.086832174776564
seq906	700	0.0715124088546483	0.746494538232373
seq907	700	0.129270431040061	0.608162859980139
seq908	699	0.0238875357541292	0.909235352532274
seq909	699	0.145278348727131	0.576166832174777
seq910	699	0.061110659549674	0.777457795431976
seq911	698	0.192125794113367	0.49811320754717
seq912	697	0.153368255427114	0.561310824230387
seq913	697	0.79371457818049	0.0466137040714995
seq914	697	0.542475378211678	0.167527308838133
seq915	697	0.0857502066638634	0.708917576961271
seq916	696	0.153414770989384	0.561211519364449
seq917	696	0.1364443075655	0.593068520357497
seq918	695	0.642362136261455	0.112552135054618
seq919	694	0.531560521161764	0.174041708043694
seq920	694	0.181871314224579	0.512472691161867
seq921	693	0.163759896157211	0.542720953326713
seq922	693	0.411169101597271	0.257120158887785
seq923	691	0.0219463609326665	0.916524329692155
seq924	690	0.0281582326822283	0.892552135054618
seq925	688	0.382570638768587	0.279940417080437
seq926	688	0.684649215087171	0.0916782522343595
seq927	688	0.477741083695024	0.208699106256207
seq928	687	0.292021988629003	0.369632571996028
seq929	687	0.329630516824183	0.329831181727905
seq930	686	0.502549001944571	0.19227408142999
seq931	686	0.746084543958022	0.0648857994041708
seq932	686	0.353056492573337	0.306812313803376
seq933	685	0.385570328415423	0.277378351539225
seq934	685	0.851940119953052	0.0279046673286991
seq935	684	0.43649384776366	0.237775571002979
seq936	684	0.0609431671719328	0.777874875868918
seq937	684	0.957681364220683	0.00291956305858987
seq938	684	0.0353373437075461	0.865461767626614
seq939	683	0.318912666969754	0.341251241310824
seq940	683	0.0156231925180293	0.942581926514399
seq941	682	0.48309449923355	0.204965243296922
seq942	682	0.231772675900238	0.442502482621648
seq943	681	0.0499125525117209	0.813267130089374
seq944	681	0.581131604085344	0.144905660377358
seq945	681	0.499249034906647	0.194498510427011
seq946	681	0.240748738121396	0.430943396226415
seq947	679	0.0260400864005681	0.900695134061569
seq948	678	0.117176225443802	0.63364448857994
seq949	678	0.870437444881214	0.0216087388282026
seq950	678	0.27406202595488	0.3906454816286
seq951	678	0.0858794689615784	0.70857994041708
seq952	678	0.0890871069290117	0.700019860973188
seq953	677	0.136320221123294	0.593326713008937
seq954	677	0.16403802211836	0.542244289970209
seq955	676	0.0380790566750208	0.854538232373386
seq956	674	0.166670014408402	0.537775571002979
seq957	674	0.229655184469836	0.445402184707051
seq958	674	0.536065775385671	0.171479642502483
seq959	673	0.0507168105279612	0.810347567030784
seq960	673	0.0949485063298694	0.685461767626614
seq961	673	0.33970779622256	0.319920556107249
seq962	671	0.551405595159335	0.162045680238332
seq963	671	0.430732145009512	0.241410129096326
seq964	670	0.0268875528613281	0.897318768619662
seq965	670	0.81313455874592	0.0400794438927507
seq966	670	0.0935701765287384	0.68875868917577
seq967	669	0.794425790304805	0.0464349553128103
seq968	668	0.24657028479015	0.423813306852036
seq969	667	0.0538986114976642	0.799821251241311
seq970	667	0.466311054166037	0.216325719960278
seq971	667	0.0730189989471745	0.742105263157895
seq972	667	0.173676998433738	0.526474677259186
seq973	667	0.106876444268512	0.657318768619662
seq974	666	0.36871564208433	0.292333664349553
seq975	665	0.22121134641383	0.457060575968222
seq976	665	0.0617577982994242	0.775551142005958
seq977	665	0.327477284880285	0.331797418073486
seq978	664	0.661536726071778	0.103018867924528
seq979	664	0.0233144961325593	0.911380337636544
seq980	664	0.671080489102226	0.0987686196623635
seq981	663	0.0556603108072924	0.794081429990069
seq982	663	0.720624092868849	0.075630585898709
seq983	662	0.600138829789536	0.134379344587885
seq984	662	0.702582599026795	0.0838530287984111
seq985	662	0.140738951214016	0.584528301886793
seq986	662	0.043349840925322	0.836087388282026
seq987	662	0.455155522069001	0.223654419066534
seq988	660	0.0730935751235259	0.741847070506455
seq989	660	0.5914621772232	0.139126117179742
seq990	659	0.160660233600011	0.548440913604767
seq991	659	0.0346754620101337	0.867864945382324
seq992	659	0.247650556868247	0.422502482621648
seq993	659	0.168395774904693	0.534856007944389
seq994	657	0.167161060111561	0.537020854021847
seq995	656	0.00967951447594528	0.968063555114201
seq996	656	0.519354150962314	0.181827209533267
seq997	656	0.406220061270697	0.260834160873883
seq998	656	0.265640044025723	0.4
seq999	656	0.0354805909628188	0.864786494538232
seq1000	655	0.135753895993804	0.594339622641509
seq1001	654	0.884972243494266	0.0174379344587885
seq1002	654	0.869204517657324	0.0221052631578947
seq1003	653	0.197286940683654	0.489930486593843
seq1004	653	0.0186451433953956	0.929592850049652
seq1005	652	0.0628383520229015	0.772413108242304
seq1006	651	0.0325282230882878	0.875789473684211
seq1007	651	0.011474158872227	0.959920556107249
seq1008	651	0.203052982775948	0.481727904667329
seq1009	651	0.11622202783004	0.635849056603774
seq1010	651	0.646818268349802	0.110327706057597
seq1011	650	0.867473818142465	0.0228003972194638
seq1012	650	0.180561838114219	0.514796425024826
seq1013	649	0.08173900377409	0.719205561072493
seq1014	649	0.0410378550299052	0.843813306852036
seq1015	649	0.0988658874176685	0.676206554121152
seq1016	648	0.441242477618005	0.23382323733863
seq1017	648	0.333360996088654	0.325938430983118
seq1018	647	0.0570687807713373	0.789433962264151
seq1019	647	0.0960667733661563	0.682502482621648
seq1020	646	0.489748049228905	0.200834160873883
seq1021	646	0.600226802471217	0.134319761668322
seq1022	646	0.245226045502665	0.4253227408143
seq1023	646	0.12951007441183	0.607507447864945
seq1024	646	0.566149557614949	0.153664349553128
seq1025	645	0.438074904362182	0.236643495531281
seq1026	645	0.147042122773338	0.573128103277061
seq1027	645	0.384718883290029	0.278033763654419
seq1028	645	0.308819091265617	0.352254220456802
seq1029	645	0.139985301413285	0.585878848063555
seq1030	644	0.770800514966504	0.0549751737835154
seq1031	644	0.0119474241053647	0.958073485600794
seq1032	644	0.0355324302235056	0.864667328699106
seq1033	644	0.828247250861896	0.0350148957298908
seq1034	644	0.483942839762425	0.204349553128103
seq1035	644	0.58374428769026	0.143396226415094
seq1036	644	0.115843639187237	0.636603773584906
seq1037	643	0.0902488426250374	0.697179741807349
seq1038	643	0.154765067588515	0.558391261171797
seq1039	643	0.204340672547584	0.479860973187686
seq1040	641	0.265351513233555	0.400278053624628
seq1041	641	0.291165768122046	0.370605759682224
seq1042	640	0.191471667329077	0.499026812313803
seq1043	639	0.0687984316677439	0.754379344587885
seq1044	639	0.0986491763666121	0.676583912611718
seq1045	639	0.0360583845776537	0.862641509433962
seq1046	638	0.572568404258787	0.149791459781529
seq1047	638	0.363430666319069	0.296603773584906
seq1048	638	0.0912152142684264	0.694597815292949
seq1049	637	0.57346894698519	0.149314796425025
seq1050	637	0.73117815551333	0.0709433962264151
seq1051	636	0.0777951215240775	0.728778550148957
seq1052	636	0.294988523009097	0.366593843098312
seq1053	636	0.0359613592523755	0.862979145978153
seq1054	635	0.221574083616616	0.456583912611718
seq1055	635	0.766946583808253	0.0563853028798411
seq1056	635	0.234947871658383	0.438411122144985
seq1057	635	0.101561696722043	0.669930486593843
seq1058	634	0.354099231873088	0.305779543197617
seq1059	634	0.116565949655691	0.634955312810328
seq1060	634	0.237213162659176	0.43545183714002
seq1061	633	0.0459421115846227	0.826454816285998
seq1062	632	0.348686119950506	0.310824230387289
seq1063	631	0.183509172593111	0.510109235352532
seq1064	629	0.705394342187338	0.0825223435948362
seq1065	629	0.832432384482321	0.0334657398212512
seq1066	629	0.118476861452658	0.630625620655412
seq1067	629	0.213410317016581	0.467527308838133
seq1068	628	0.83209955332811	0.0335849056603774
seq1069	628	0.687865876858979	0.0899503475670308
seq1070	628	0.0172938511293035	0.935769612711023
seq1071	628	0.0304425673719164	0.882840119165839
seq1072	628	0.47057011841927	0.213426017874876
seq1073	627	0.317413187325244	0.342859980139027
seq1074	627	0.215082304406239	0.464885799404171
seq1075	627	0.0352285455341549	0.865858987090367
seq1076	627	0.0480842965425438	0.819126117179742
seq1077	626	0.388009385353021	0.275312810327706
seq1078	625	0.242484713418462	0.428738828202582
seq1079	625	0.17239274714604	0.528659384309831
seq1080	625	0.712343098778145	0.0793247269116187
seq1081	625	0.0662644347015398	0.761807348560079
seq1082	624	0.158905534424724	0.55142005958292
seq1083	624	0.444178037273568	0.231598808341609
seq1084	624	0.506496123064412	0.189791459781529
seq1085	623	0.221063111540882	0.457259185700099
seq1086	623	0.117169095568318	0.63364448857994
seq1087	623	0.377966788949531	0.283833167825223
seq1088	622	0.00683890899922852	0.980575968222443
seq1089	622	0.922376936041784	0.00939424031777557
seq1090	622	0.368005990795796	0.29279046673287
seq1091	621	0.550483315239594	0.162442899702085
seq1092	620	0.579437295505848	0.14609731876862
seq1093	620	0.0364211978777786	0.861151936444886
seq1094	620	0.277002327634123	0.386991062562066
seq1095	619	0.0929820555213859	0.690188679245283
seq1096	619	0.243462533613288	0.427269116186693
seq1097	619	0.210115998392124	0.471956305858987
seq1098	619	0.0170388418842612	0.936842105263158
seq1099	618	0.478294584552275	0.208421052631579
seq1100	618	0.190531993248252	0.500297914597815
seq1101	617	0.139889772449128	0.586156901688183
seq1102	617	0.201869075943133	0.483594836146971
seq1103	617	0.018237989933197	0.931281032770606
seq1104	616	0.300462933282695	0.361052631578947
seq1105	616	0.430728446698752	0.241410129096326
seq1106	616	0.0597418648464723	0.78137040714995
seq1107	615	0.883385172323179	0.0178351539225422
seq1108	615	0.312526514325445	0.348202581926514
seq1109	614	0.635662601978577	0.115769612711023
seq1110	614	0.162326792130181	0.545382323733863
seq1111	613	0.743006613736378	0.0662164846077458
seq1112	612	0.244325563986798	0.426454816285998
seq1113	612	0.198339815482149	0.488480635551142
seq1114	612	0.515615141422865	0.184011916583913
seq1115	611	0.0459140776995939	0.826534260178749
seq1116	611	0.0642558943183408	0.76746772591857
seq1117	611	0.0259284938316261	0.901072492552135
seq1118	611	0.569936130760509	0.151400198609732
seq1119	611	0.0181335483560684	0.931817279046673
seq1120	610	0.0722929839702866	0.7440317775571
seq1121	610	0.175484227301467	0.523396226415094
seq1122	609	0.127346944959697	0.611638530287984
seq1123	609	0.619576749366654	0.124389275074479
seq1124	609	0.172478463306183	0.52850049652433
seq1125	608	0.257507826746667	0.410486593843098
seq1126	608	0.885429093238455	0.017279046673287
seq1127	608	0.128123270774674	0.610446871896723
seq1128	608	0.100092915848626	0.673505461767627
seq1129	607	0.24399529510716	0.426812313803376
seq1130	607	0.247171658932109	0.423098311817279
seq1131	607	0.565857005374483	0.153922542204568
seq1132	607	0.591246882918406	0.139185700099305
seq1133	605	0.253917636520177	0.414875868917577
seq1134	605	0.920796503802135	0.0096325719960278
seq1135	604	0.913535352062148	0.0108639523336643
seq1136	603	0.632065046311513	0.117795431976167
seq1137	603	0.153800638307708	0.560317775571003
seq1138	603	0.2630738568024	0.403217477656405
seq1139	602	0.0584669890228799	0.785263157894737
seq1140	602	0.883790578526106	0.0177755710029791
seq1141	602	0.156917958435501	0.554756703078451
seq1142	601	0.1314961222451	0.60291956305859
seq1143	601	0.796013108419064	0.0460178748758689
seq1144	600	0.0683754911909377	0.755690168818272
seq1145	600	0.162244265131854	0.545481628599801
seq1146	599	0.153258903466203	0.561509433962264
seq1147	598	0.108326998884003	0.653942403177756
seq1148	598	0.229536205117938	0.445600794438928
seq1149	598	0.157185018945187	0.554379344587885
seq1150	597	0.137243014765766	0.591360476663356
seq1151	597	0.0414240069298229	0.842681231380338
seq1152	597	0.212784442378954	0.468301886792453
seq1153	597	0.0914819418028	0.693882820258193
seq1154	596	0.465349544001161	0.216782522343595
seq1155	596	0.132604061832334	0.600615690168818
seq1156	596	0.254937247871311	0.41364448857994
seq1157	595	0.265400192384365	0.400238331678252
seq1158	595	0.783831828010304	0.0497517378351539
seq1159	595	0.132352386969998	0.600993048659384
seq1160	594	0.552836068833781	0.161231380337637
seq1161	594	0.143694448585553	0.578987090367428
seq1162	594	0.900688589339736	0.0134260178748759
seq1163	594	0.483636960442359	0.204568023833168
seq1164	594	0.217125611823191	0.462303872889772
seq1165	594	0.0538025000804731	0.800039721946375
seq1166	594	0.619181134704192	0.124627606752731
seq1167	593	0.828344368915783	0.03493545183714
seq1168	593	0.348087081515658	0.311519364448858
seq1169	592	0.845043407436597	0.0299503475670308
seq1170	592	0.793933055354328	0.0465342601787488
seq1171	591	0.614324847969945	0.127328699106256
seq1172	591	0.728979501923667	0.0720556107249255
seq1173	590	0.0177623223832135	0.933704071499504
seq1174	590	0.144072222160228	0.578212512413108
seq1175	589	0.850788291954901	0.028162859980139
seq1176	589	0.0678605896005824	0.757159880834161
seq1177	589	0.421451912447565	0.248977159880834
seq1178	588	0.539251194860826	0.1693545183714
seq1179	588	0.492847993743005	0.198808341608739
seq1180	588	0.562330469566906	0.155988083416087
seq1181	588	0.0526204488502683	0.803992055610725
seq1182	588	0.118445558663412	0.630724925521351
seq1183	588	0.0985256137527095	0.676782522343595
seq1184	587	0.904964510687827	0.0126315789473684
seq1185	587	0.0714425773436873	0.746732869910626
seq1186	586	0.222999717418912	0.454577954319762
seq1187	585	0.297297921422447	0.364250248262165
seq1188	585	0.183449333660396	0.510228401191658
seq1189	584	0.883499103762097	0.0177954319761668
seq1190	584	0.559305575846962	0.157557100297915
seq1191	584	0.195566292208026	0.492631578947368
seq1192	582	0.928576357885008	0.00796425024826217
seq1193	582	0.906406763810661	0.0124329692154916
seq1194	582	0.611996265821359	0.128381330685204
seq1195	582	0.491099341439095	0.199860973187686
seq1196	582	0.014466733001115	0.947586891757696
seq1197	581	0.0578543365558741	0.786931479642502
seq1198	581	0.276463505280142	0.387686196623635
seq1199	581	0.299631998817102	0.361866931479642
seq1200	581	0.197418433911256	0.489731876861966
seq1201	580	0.933870704897098	0.00675273088381331
seq1202	580	0.932249580374709	0.0071896722939424
seq1203	580	0.338823297976239	0.320675273088381
seq1204	580	0.331718307727422	0.327765640516385
seq1205	579	0.120404620421505	0.626017874875869
seq1206	579	0.336155993218509	0.323157894736842
seq1207	579	0.359889448964495	0.300119165839126
seq1208	579	0.452687558456477	0.225283018867925
seq1209	579	0.0794096033265333	0.724746772591857
seq1210	578	0.326975701229763	0.332452830188679
seq1211	578	0.454196166854525	0.224210526315789
seq1212	578	0.893299165960447	0.0152929493545184
seq1213	578	0.293188776625795	0.368679245283019
seq1214	578	0.6452662964173	0.111281032770606
seq1215	578	0.202592426525946	0.482542204568024
seq1216	577	0.297698346643633	0.363833167825223
seq1217	577	0.352249429463461	0.307408142999007
seq1218	576	0.179484258397912	0.516425024826216
seq1219	576	0.583068122565738	0.143753723932473
seq1220	576	0.0659471073034016	0.762423038728898
seq1221	575	0.803764426156787	0.0435153922542205
seq1222	575	0.700126463569704	0.0848857994041708
seq1223	574	0.0504211051020235	0.811559086395233
seq1224	574	0.196710358558752	0.49098311817279
seq1225	573	0.371265819332379	0.289632571996028
seq1226	573	0.0304768784444044	0.882760675273088
seq1227	573	0.104511349267516	0.662780536246276
seq1228	573	0.205907963884384	0.478073485600794
seq1229	573	0.498352431635152	0.195173783515392
seq1230	572	0.0786841231313521	0.726573982125124
seq1231	572	0.0125558599253861	0.955868917576961
seq1232	572	0.311456199094028	0.349314796425025
seq1233	571	0.582373864881178	0.144190665342602
seq1234	571	0.0795869629928262	0.72428997020854
seq1235	571	0.0148475316938713	0.945958291956306
seq1236	571	0.297972705683296	0.363614697120159
seq1237	571	0.124891026282009	0.616901688182721
seq1238	571	0.148119188273042	0.571380337636544
seq1239	570	0.453740246844899	0.224647467725919
seq1240	570	0.846039764367406	0.0297517378351539
seq1241	570	0.292952848261925	0.368818272095333
seq1242	569	0.0945919147613147	0.686117179741807
seq1243	569	0.127466007386544	0.61149950347567
seq1244	569	0.10295303849812	0.666295928500497
seq1245	569	0.164845414425137	0.540814299900695
seq1246	569	0.900801381919006	0.0134061569016882
seq1247	569	0.0704707973315077	0.749692154915591
seq1248	568	0.0937065428703084	0.68824230387289
seq1249	568	0.238185412646667	0.434101290963257
seq1250	568	0.0823346681036433	0.717676266137041
seq1251	568	0.216249375636652	0.463455809334657
seq1252	567	0.196258372158623	0.491658391261172
seq1253	567	0.175249927188523	0.523733862959285
seq1254	567	0.248541555611367	0.421350546176763
seq1255	567	0.738526201397073	0.0680635551142006
seq1256	567	0.753850683685057	0.0611717974180735
seq1257	566	0.793026485861772	0.0467924528301887
seq1258	566	0.359782058157084	0.300238331678252
seq1259	565	0.794664719437138	0.0463356504468719
seq1260	565	0.71085598310976	0.0800595829195631
seq1261	565	0.0879827771797221	0.703058589870904
seq1262	565	0.311540444854952	0.349215491559086
seq1263	565	0.403381975669315	0.26343594836147
seq1264	565	0.498393817590345	0.195153922542205
seq1265	564	0.943817934833033	0.00502482621648461
seq1266	563	0.227770510784117	0.447884806355511
seq1267	563	0.0404698872643837	0.846137040714995
seq1268	562	0.0913702850553263	0.69416087388282
seq1269	562	0.180053423685566	0.515571002979146
seq1270	562	0.861708977512868	0.0246871896722939
seq1271	562	0.530493379249194	0.174796425024826
seq1272	562	0.077909773678129	0.728599801390268
seq1273	562	0.707847937539918	0.0813505461767627
seq1274	562	0.0260617416714062	0.900655412115194
seq1275	561	0.86543364843866	0.0234955312810328
seq1276	561	0.0515032151227935	0.807825223435948
seq1277	561	0.277749246453609	0.385998013902681
seq1278	560	0.510347251407992	0.187070506454816
seq1279	560	0.0274210614000458	0.895034756703078
seq1280	559	0.0757514842238999	0.734736842105263
seq1281	559	0.128697039071491	0.609195630585899
seq1282	558	0.300869335224925	0.360814299900695
seq1283	558	0.118992800952752	0.6293545183714
seq1284	558	0.15033931148024	0.567090367428004
seq1285	557	0.349519908689445	0.309990069513406
seq1286	557	0.462064846763768	0.219324726911619
seq1287	557	0.285748849803591	0.377259185700099
seq1288	557	0.802924902850975	0.0437537239324727
seq1289	557	0.421193924146291	0.249076464746773
seq1290	557	0.16197362265594	0.54609731876862
seq1291	556	0.0447468679805583	0.8306454816286
seq1292	556	0.133848488644695	0.598073485600794
seq1293	556	0.0986830527739729	0.676504468718967
seq1294	556	0.108510499852603	0.653545183714002
seq1295	556	0.124090332603116	0.618589870903674
seq1296	555	0.129032398962026	0.608639523336644
seq1297	555	0.0863949236858092	0.707090367428004
seq1298	554	0.826380859317831	0.0355511420059583
seq1299	554	0.224481979393746	0.452512413108242
seq1300	553	0.353137292705656	0.306732869910626
seq1301	552	0.202181180332721	0.483098311817279
seq1302	552	0.73774573067144	0.0683217477656405
seq1303	552	0.132857806526718	0.6
seq1304	551	0.0271606796728191	0.89604766633565
seq1305	551	0.395941174462562	0.269195630585899
seq1306	551	0.149988732646052	0.567765640516385
seq1307	550	0.0779795996887734	0.728440913604767
seq1308	550	0.0553009282399726	0.795531281032771
seq1309	550	0.590162099952266	0.139622641509434
seq1310	549	0.439916066245691	0.235054617676266
seq1311	549	0.00860108034970777	0.973008937437934
seq1312	548	0.0403007385748327	0.846752730883813
seq1313	548	0.099622819235841	0.674617676266137
seq1314	548	0.451121947764484	0.226474677259186
seq1315	547	0.147012060327831	0.573187686196624
seq1316	547	0.131178510137748	0.603614697120159
seq1317	546	0.377616874110261	0.284170804369414
seq1318	546	0.705139971987023	0.0827010923535253
seq1319	546	0.181640334003711	0.512810327706058
seq1320	545	0.211448520564011	0.470287984111221
seq1321	544	0.129638401619236	0.607189672293942
seq1322	544	0.137423989954769	0.591042701092354
seq1323	544	0.706497406263763	0.0819265143992056
seq1324	544	0.162340503466968	0.545342601787488
seq1325	544	0.134004469535578	0.597815292949355
seq1326	543	0.135049654737351	0.595630585898709
seq1327	543	0.122712287464337	0.621310824230387
seq1328	543	0.759695283578357	0.0591658391261172
seq1329	543	0.184944463597153	0.508202581926514
seq1330	543	0.999503853952546	0
seq1331	542	0.770779337278169	0.0549751737835154
seq1332	541	0.867293162612959	0.0228401191658391
seq1333	540	0.131297348358609	0.603376365441907
seq1334	540	0.0838710170959035	0.713704071499503
seq1335	540	0.303258805167225	0.358073485600794
seq1336	540	0.18622910135318	0.506395233366435
seq1337	540	0.124816531632701	0.617100297914598
seq1338	539	0.0967812716181656	0.680536246276068
seq1339	539	0.067007467527518	0.759900695134062
seq1340	537	0.115482140083749	0.637418073485601
seq1341	537	0.567501190947627	0.152929493545184
seq1342	537	0.163703926730196	0.542899702085402
seq1343	537	0.0188239650278814	0.928877855014896
seq1344	537	0.404839005997215	0.26214498510427
seq1345	537	0.413978713835099	0.255054617676266
seq1346	537	0.0513042351527351	0.808401191658391
seq1347	536	0.358751225985846	0.301310824230387
seq1348	536	0.204074604797388	0.480218470705065
seq1349	536	0.302176774828924	0.35948361469712
seq1350	536	0.0986623811810547	0.67656405163853
seq1351	536	0.0932453749349038	0.689632571996028
seq1352	536	0.323215209898551	0.336941410129096
seq1353	535	0.00567068008859775	0.984826216484608
seq1354	535	0.715829888112603	0.0776961271102284
seq1355	535	0.241065694251926	0.430585898709037
seq1356	535	0.469531232158164	0.214220456802383
seq1357	535	0.0408323239672462	0.844607745779543
seq1358	535	0.00406698899362157	0.990407149950348
seq1359	534	0.0258781319568931	0.901271102284012
seq1360	533	0.0481481577464763	0.818867924528302
seq1361	533	0.0352600972651914	0.865759682224429
seq1362	533	0.0275846496204099	0.894538232373386
seq1363	533	0.1942632800991	0.494657398212512
seq1364	532	0.389455170724428	0.274001986097319
seq1365	532	0.5821055399456	0.144349553128103
seq1366	532	0.0765752446023721	0.732472691161867
seq1367	532	0.10034815076948	0.67304865938431
seq1368	532	0.340767790457934	0.318987090367428
seq1369	531	0.0351158349119655	0.866216484607746
seq1370	531	0.0758581994284011	0.73441906653426
seq1371	531	0.189262843632294	0.502105263157895
seq1372	531	0.0275858394657233	0.894518371400199
seq1373	530	0.219802318268463	0.458808341608739
seq1374	530	0.405600341591854	0.2612909632572
seq1375	530	0.852486135396737	0.0277259185700099
seq1376	530	0.144580098274419	0.577318768619662
seq1377	530	0.486980954535227	0.202482621648461
seq1378	530	0.0318182924724694	0.878013902681231
seq1379	530	0.347765293879481	0.311797418073486
seq1380	529	0.807156880402402	0.0422840119165839
seq1381	529	0.582516215022604	0.1440317775571
seq1382	529	0.198788916998312	0.487864945382324
seq1383	529	0.516948441648711	0.183118172790467
seq1384	527	0.162717867074565	0.544587884806356
seq1385	527	0.25476680237866	0.413783515392254
seq1386	527	0.094640315173232	0.686077457795432
seq1387	527	0.544655060328869	0.166137040714995
seq1388	526	0.132446557978941	0.60077457795432
seq1389	525	0.588397173064583	0.140714995034757
seq1390	525	0.614316006279376	0.127328699106256
seq1391	525	0.173876346674232	0.52609731876862
seq1392	525	0.327748405690978	0.331360476663356
seq1393	524	0.110669923814906	0.648540218470705
seq1394	523	0.869335376691122	0.0220456802383317
seq1395	523	0.200996421675734	0.484925521350546
seq1396	523	0.260517389979168	0.40643495531281
seq1397	523	0.878608226899066	0.0192452830188679
seq1398	523	0.224155528977152	0.453128103277061
seq1399	522	0.152541573833181	0.563058589870904
seq1400	522	0.147790275474879	0.571876861966236
seq1401	521	0.286349954703126	0.376623634558093
seq1402	521	0.316058366901161	0.34454816285998
seq1403	521	0.275997105795027	0.388222442899702
seq1404	520	0.115697505378776	0.636961271102284
seq1405	520	0.164278574197845	0.541847070506455
seq1406	520	0.0598657286024417	0.781092353525323
seq1407	520	0.0313916237830637	0.879463753723932
seq1408	520	0.0915033596117229	0.693862959285005
seq1409	519	0.0350478890449081	0.866415094339623
seq1410	519	0.140817480493629	0.584250248262165
seq1411	518	0.999992940284217	0
seq1412	518	0.317385535140362	0.34291956305859
seq1413	518	0.194804673426814	0.493684210526316
seq1414	518	0.0291759034952214	0.888321747765641
seq1415	518	0.567199871303771	0.153068520357498
seq1416	518	0.633593137383199	0.116901688182721
seq1417	518	0.0311899521557315	0.88025819265144
seq1418	518	0.289596456086037	0.372651439920556
seq1419	517	0.522765882198302	0.179543197616683
seq1420	517	0.073703992744531	0.740337636544191
seq1421	517	0.521872693660681	0.180099304865938
seq1422	517	0.84525052904143	0.0298907646474677
seq1423	516	0.192554924181341	0.497298907646475
seq1424	516	0.245298632442919	0.425203574975174
seq1425	516	0.970594452363293	0.00142999006951341
seq1426	516	0.373786500006461	0.287447864945382
seq1427	516	0.540506698362333	0.168619662363456
seq1428	516	0.928498748516692	0.00796425024826217
seq1429	516	0.0481358542875065	0.81896722939424
seq1430	516	0.833481548154739	0.0331876861966236
seq1431	515	0.0587062934187271	0.784488579940417
seq1432	515	0.407100672588273	0.260158887785502
seq1433	515	0.536834642597582	0.170963257199603
seq1434	515	0.395503081809799	0.269632571996028
seq1435	515	0.707453339454039	0.0815888778550149
seq1436	515	0.655309750386589	0.106117179741807
seq1437	514	0.479745198419011	0.207388282025819
seq1438	514	0.0492613890044907	0.815273088381331
seq1439	514	0.415785550600189	0.253525322740814
seq1440	513	0.00511657006860272	0.987030784508441
seq1441	513	0.428988256889365	0.242899702085402
seq1442	513	0.814383848592635	0.039682224428997
seq1443	513	0.547255734771361	0.164468718967229
seq1444	513	0.00925365166273101	0.970069513406157
seq1445	513	0.314692191126185	0.345739821251241
seq1446	512	0.264957326069419	0.400794438927507
seq1447	512	0.0651938016018313	0.764865938430983
seq1448	512	0.836950014147665	0.0322343594836147
seq1449	512	0.162604042733888	0.544865938430983
seq1450	512	0.156848875859321	0.554895729890765
seq1451	512	0.0706773594827384	0.74909632571996
seq1452	511	0.927623477324069	0.00818272095332671
seq1453	511	0.34727717175979	0.312373386295928
seq1454	511	0.910540749967415	0.0113803376365442
seq1455	510	0.0360809379912898	0.862542204568024
seq1456	510	0.0581111813125164	0.786335650446872
seq1457	510	0.0213009943166996	0.91888778550149
seq1458	510	0.540033406573472	0.168738828202582
seq1459	510	0.5266086838234	0.177298907646475
seq1460	510	0.270654017256144	0.394260178748759
seq1461	509	0.350405212137435	0.309175769612711
seq1462	509	0.207424829050222	0.475769612711023
seq1463	509	0.32339380482122	0.336782522343595
seq1464	509	0.633532999560758	0.116921549155909
seq1465	509	0.368196681362793	0.292671300893744
seq1466	509	0.15481289401994	0.558351539225422
seq1467	509	0.781786080075837	0.0504071499503476
seq1468	508	0.267998994472272	0.397140019860973
seq1469	508	0.4768872938975	0.209334657398213
seq1470	508	0.0418969050485216	0.841012909632572
seq1471	508	0.0089858616293331	0.971281032770606
seq1472	507	0.285289717701302	0.377676266137041
seq1473	507	0.121760106037158	0.623237338629593
seq1474	506	0.00191692165529132	0.996921549155909
seq1475	506	0.490966804596486	0.2
seq1476	506	0.303532260306569	0.357735849056604
seq1477	506	0.884814115334649	0.0174577954319762
seq1478	506	0.237538196965098	0.434995034756703
seq1479	506	0.120255757689334	0.626375372393247
seq1480	506	0.133617886280547	0.598470705064548
seq1481	506	0.0415246931929545	0.842303872889772
seq1482	505	0.388893582240594	0.274379344587885
seq1483	505	0.861561568265866	0.0246871896722939
seq1484	505	0.130535984655882	0.605143992055611
seq1485	503	0.456851715553976	0.222641509433962
seq1486	503	0.174428445497905	0.525223435948362
seq1487	502	0.17873910194629	0.517815292949354
seq1488	502	0.621995391451159	0.122939424031778
seq1489	502	0.01171134197455	0.959026812313803
seq1490	502	0.464265300530703	0.217696127110228
seq1491	502	0.0318902424682501	0.877874875868918
seq1492	502	0.0558761717954997	0.793406156901688
seq1493	501	0.0230770775965553	0.912254220456802
seq1494	501	0.10628199565001	0.658530287984111
seq1495	501	0.0138501760943165	0.950009930486594
seq1496	501	0.930250104899734	0.00766633565044687
seq1497	501	0.890533076315482	0.0160278053624628
seq1498	501	0.102304553581652	0.668023833167825
seq1499	500	0.958348261987967	0.00284011916583913
seq1500	500	0.638453989424749	0.114379344587885
seq1501	500	0.010626499996195	0.963594836146971
